Time (s),EMG Signal with Noise
0.0,0.14901424590336979
0.001,-0.004294570972184351
0.002,0.2656501343811238
0.003,0.5566557476948696
0.004,0.049981798302399356
0.005,0.06115417267990254
0.006,0.6065328990456992
0.007,0.35505771645873896
0.008,-0.031882933125630855
0.009000000000000001,0.25009790495002493
0.01,-0.07635869106158653
0.011,-0.10172548016625277
0.012,0.08892295080094144
0.013000000000000001,-0.5735671902373923
0.014,-0.5250694718957872
0.015,-0.1749956014794295
0.016,-0.299099997472639
0.017,0.1193760553021148
0.018000000000000002,-0.21905036741091988
0.019,-0.33634331132621986
0.02,0.5640395742588936
0.021,0.09358956243648262
0.022,0.21551295439428705
0.023,-0.20401312519155418
0.024,0.08031162506047809
0.025,0.28778527410043353
0.026000000000000002,-0.08972061669357069
0.027,0.36002087720268966
0.028,0.05090837984086437
0.029,0.12159951385613713
0.03,0.003550292673519954
0.031,0.7146713036760872
0.032,0.13285914076797375
0.033,-0.1967617602674336
0.034,0.3588456124980834
0.035,-0.2533634492087703
0.036000000000000004,0.18611131019737776
0.037,-0.4446111285564113
0.038,-0.22744440958803255
0.039,0.2635086374059086
0.04,0.4624168110494807
0.041,0.3286758545686318
0.042,0.27589564133065564
0.043000000000000003,0.2477903576514614
0.044,-0.08586363050006511
0.045,0.15196013497108565
0.046,0.23011119370871366
0.047,0.6764761755472635
0.048,0.44549848666316383
0.049,-0.2092239954601918
0.05,0.3911178169646749
0.051000000000000004,0.1525261079663696
0.052000000000000005,0.042110023526267554
0.053,0.41153099375993263
0.054,0.5280398857646201
0.055,0.4980960306092044
0.056,-0.023342927811584813
0.057,0.15462746568361913
0.058,0.37360643790894765
0.059000000000000004,0.5994282427597253
0.06,0.19852128161075724
0.061,0.32203065934475217
0.062,0.07820301792686338
0.063,0.07780755081793633
0.064,0.6990179107917281
0.065,0.8713563222819527
0.066,0.44225917383450214
0.067,0.754932141517193
0.068,0.5443950231115893
0.069,0.21858702856168138
0.07,0.49367530304041857
0.07100000000000001,0.8197404212858077
0.07200000000000001,0.32361787910607653
0.073,0.7854865966306249
0.074,-0.4802456904210003
0.075,0.5510792485000409
0.076,0.33917809420052797
0.077,0.2411623942369588
0.078,0.3840476573293097
0.079,-0.20840835379669162
0.08,0.3562623963997539
0.081,0.5635327117883646
0.082,0.9309100667485285
0.083,0.3573823425518182
0.084,0.287649448096322
0.085,0.3876262269465708
0.08600000000000001,0.8108719001576141
0.08700000000000001,0.6235952567421721
0.088,0.3467711761747676
0.089,0.6345845551546873
0.09,0.481536791037422
0.091,0.7147447830648698
0.092,0.18822613291800577
0.093,0.2809155802661098
0.094,0.24980050584806635
0.095,-0.07416624149550989
0.096,0.4608949027181635
0.097,0.4667818110434092
0.098,0.4142507797099234
0.099,0.3722713130473334
0.1,0.05091703553245282
0.101,0.3821403749812086
0.10200000000000001,0.4352250647799047
0.10300000000000001,0.32123235446405235
0.10400000000000001,0.5294107575463498
0.105,0.705506837608677
0.106,1.1467772884500114
0.107,0.6205384796803353
0.108,0.6246777042301734
0.109,0.49849545089976804
0.11,-0.08448773922536829
0.111,0.4534263051923425
0.112,0.4526335098569948
0.113,1.152396806677048
0.114,0.34241677178447333
0.115,0.4865215533573226
0.116,0.39128647271891576
0.117,0.0659703977672957
0.11800000000000001,0.7821351236968452
0.11900000000000001,0.6932576604988447
0.12,0.7363229483270497
0.121,0.2574539413020819
0.122,0.9792615548303718
0.123,0.16018847524146038
0.124,0.7711233018715046
0.125,1.2571366877429937
0.126,0.2979052761922169
0.127,0.41085447519831303
0.128,0.5883186710758345
0.129,0.3792274815056437
0.13,0.03381433489429583
0.131,0.4882466431346201
0.132,0.12059716522450697
0.133,0.5586515382437097
0.134,0.1258727333603478
0.135,0.8610376721625007
0.136,0.1651490735179392
0.137,0.31680571806975955
0.138,0.6786196120855879
0.139,0.09212117289692176
0.14,0.5593816057455837
0.14100000000000001,0.9129720519143473
0.14200000000000002,0.06516761664497597
0.14300000000000002,0.6235552933904749
0.14400000000000002,0.6588863563613797
0.145,0.8188384420975087
0.146,0.206711257782728
0.147,0.16577855130525515
0.148,0.6946218894230047
0.149,0.5974293737807722
0.15,0.5506761132513396
0.151,0.5465819159089705
0.152,0.20870932624363797
0.153,0.45814133853774336
0.154,0.45998056158839495
0.155,0.15058281753621539
0.156,0.9271653051311406
0.157,0.5213641005189765
0.158,0.04145101192041702
0.159,0.6211173684951523
0.16,0.1600090251648131
0.161,0.7167297063434159
0.162,0.8532779110071005
0.163,0.27876522833875406
0.164,0.8252641036202887
0.165,0.6619876181028812
0.166,0.7768155769626252
0.167,1.0819013028300963
0.168,0.41392541852521186
0.169,0.23027809102759317
0.17,0.15530963386335037
0.171,0.14311923509394436
0.17200000000000001,0.33338891154442735
0.17300000000000001,0.4332101918217117
0.17400000000000002,0.39607121352808206
0.17500000000000002,0.5526634718982809
0.176,0.3095784083692951
0.177,0.752153723033618
0.178,0.254968640867675
0.179,1.1743802013229023
0.18,0.5729568257173963
0.181,0.15497568801833406
0.182,0.11463646617896578
0.183,0.5986139967225412
0.184,0.39682337471084705
0.185,0.6786844619383333
0.186,0.5972314514455324
0.187,0.41482086424507547
0.188,0.15606539470815067
0.189,-0.07672581506186213
0.19,0.208319067344238
0.191,0.563684342920059
0.192,0.3384555317269393
0.193,-0.1263304551746129
0.194,0.28037660691056127
0.195,0.3343072087929959
0.196,-0.046417201844504874
0.197,0.2741456388913311
0.198,0.26264923915185534
0.199,-0.07484029725792211
0.2,0.401228834250722
0.201,0.4879234090590994
0.202,0.6673283727452086
0.203,0.6754801232920596
0.20400000000000001,-0.044997985390477224
0.20500000000000002,0.08656588551496142
0.20600000000000002,0.5122035467727608
0.20700000000000002,0.4922572516019099
0.20800000000000002,0.46510443193894097
0.209,1.4330848174080568
0.21,0.41214399025880777
0.211,0.545119958699351
0.212,0.45721193412945704
0.213,0.33870728399926125
0.214,0.02887145830384756
0.215,0.3405804119305167
0.216,-0.11976542549414482
0.217,0.049505936397333916
0.218,-0.008700756159377078
0.219,0.18355009013930296
0.22,0.8784598463443921
0.221,-0.3510719189834036
0.222,0.4369780439288605
0.223,-0.23650328965790773
0.224,0.1139978967962901
0.225,0.5811936762776836
0.226,0.26291044814667164
0.227,-0.0999121027063092
0.228,-0.019336619790080972
0.229,0.3652017772628455
0.23,-0.09476504593271436
0.231,0.1522853759489591
0.232,0.06702840721658757
0.233,-0.17037824875821242
0.234,0.6479325654252859
0.23500000000000001,0.18386636398826567
0.23600000000000002,-0.6151368981391594
0.23700000000000002,0.05635317759077556
0.23800000000000002,-0.1822016700993845
0.23900000000000002,0.29372344634369235
0.24,-0.17508960474765822
0.241,0.052908959434165875
0.242,0.260455566348992
0.243,0.3845538559639029
0.244,-0.22731986772325086
0.245,0.031044889012372276
0.246,-0.02225578262888643
0.247,-0.09625197899965127
0.248,0.6009798450352455
0.249,0.15867923266745795
0.25,-0.37826518630051353
0.251,0.23817386473726157
0.252,0.5653032861528735
0.253,0.2099927873928818
0.254,-0.5760388005056043
0.255,-0.2766654816245321
0.256,0.24730429036250495
0.257,-0.33712813739850045
0.258,0.02418644578901387
0.259,0.14506032415456566
0.26,-0.3407457582555767
0.261,-0.05585105272336385
0.262,-0.9887144713518523
0.263,-0.30773317556023344
0.264,-0.06817632327607044
0.265,-0.36802561188231725
0.266,0.48497405255180226
0.267,-0.4541442689117224
0.268,-0.18537020125453874
0.269,-0.048125625888540795
0.27,0.3080370431374064
0.271,-0.592081097936276
0.272,0.15369463265857708
0.273,-0.22034141236660754
0.274,-0.5380790377324182
0.275,-0.11587745490849267
0.276,-0.195859547861079
0.277,-0.42737653484662624
0.278,-0.2101593613194997
0.279,-0.32470171785264745
0.28,-0.15000707276696368
0.281,0.03965135403290932
0.28200000000000003,0.33889673665425274
0.28300000000000003,-0.49189616806739045
0.28400000000000003,0.5278278735297531
0.28500000000000003,-0.6985159856392869
0.28600000000000003,-0.1689877602066264
0.28700000000000003,0.03320525333785097
0.28800000000000003,-0.08671384476098785
0.289,-0.3912601225913493
0.29,-0.30331351215804003
0.291,-0.42516565060928907
0.292,-0.4873995531303901
0.293,-0.08324083722193985
0.294,-0.25058832082064864
0.295,-0.5757862760676944
0.296,-0.09842286236667473
0.297,-0.2671496514186058
0.298,-0.09855436414093732
0.299,-0.13079939857154457
0.3,-0.5425911294228578
0.301,-0.4361051041503562
0.302,-0.02099854208107728
0.303,-0.04491702747763317
0.304,-0.2250105072050793
0.305,-0.18351377988171025
0.306,0.15487713958132088
0.307,-0.4248625950897324
0.308,-0.1100981941368673
0.309,-0.36742250035318613
0.31,-0.4075779139325111
0.311,-0.04809529674773961
0.312,-0.1624786054322626
0.313,-0.19261664724194577
0.314,-0.06361652192717011
0.315,-0.458183161220878
0.316,-0.25927631892011305
0.317,-0.5469522991276223
0.318,-0.3386543098507661
0.319,-0.45116587125352337
0.32,-0.35615783189007966
0.321,-0.17978234371494325
0.322,-0.5798318958091038
0.323,0.31162268281921524
0.324,-0.6074830552558335
0.325,-0.6687650810237934
0.326,0.03436928832094348
0.327,-0.09336579118783878
0.328,-0.16928347925301337
0.329,-0.19935866780429334
0.33,-0.425837994605082
0.331,-0.7255752517805903
0.332,-0.46480048586795564
0.333,-0.7160119214875461
0.334,-0.23766160893895294
0.335,-0.5822705544725734
0.336,-0.7839004238847451
0.337,-0.6213856763401643
0.338,-0.3818198010221908
0.339,-0.6497216910618726
0.34,-0.699079644902939
0.341,-0.3510451224574288
0.342,-0.32535208974859403
0.343,-0.5312971768567788
0.34400000000000003,-0.5087444434732101
0.34500000000000003,-0.2952732617368349
0.34600000000000003,-0.8064841220479884
0.34700000000000003,-0.8107043617024099
0.34800000000000003,-0.6282500090929173
0.34900000000000003,-0.5066815985734321
0.35000000000000003,-0.382255988468176
0.35100000000000003,-0.06572710672595147
0.352,-0.28074153277732905
0.353,-0.6098970942195656
0.354,-0.5835013334169589
0.355,-0.8850503899556582
0.356,-0.5864754588845698
0.357,-0.6547627275068254
0.358,-0.45059701891191783
0.359,-0.7689985086953157
0.36,-0.33533967109199314
0.361,-0.001558793926334949
0.362,-0.46719249141174396
0.363,-0.2929106563017797
0.364,-0.1930818637054763
0.365,-0.5164234922229897
0.366,-0.33447225908736344
0.367,-0.41279608881861635
0.368,-0.409985449777689
0.369,-0.6995806858494519
0.37,-0.49166031193645293
0.371,-0.38087069036686866
0.372,-0.12308017921102973
0.373,-0.2929625462535831
0.374,0.050888563522043184
0.375,-0.8302042688664149
0.376,-0.33336998271522017
0.377,-0.5257411923576395
0.378,0.0985176184157596
0.379,-0.7727596633470488
0.38,-0.7509299168683684
0.381,-0.6474955443260185
0.382,-1.0764569966352804
0.383,-0.5743003155573831
0.384,-0.6294398020965979
0.385,-0.35093921471437656
0.386,-0.29759826848566234
0.387,0.14942707883330353
0.388,-0.14943729541887177
0.389,-0.6344515645258293
0.39,-0.7606680267688524
0.391,-0.37325347417766724
0.392,-0.9434825491195376
0.393,-0.018727506074477984
0.394,-0.22708948187046674
0.395,-0.725044276195727
0.396,-1.0917368297734154
0.397,-0.15575382298091367
0.398,-0.5724013733137202
0.399,-0.1369890782187771
0.4,-0.953856555785886
0.401,-0.6224599599460082
0.402,-0.41114363280172894
0.403,-0.3743710512600188
0.404,-0.5070784610425636
0.405,-0.178033263239876
0.406,-0.687719080602492
0.40700000000000003,-0.4219280697518288
0.40800000000000003,-0.36275337156764254
0.40900000000000003,-0.26981963568737805
0.41000000000000003,-0.23892906280634407
0.41100000000000003,-0.8179969527720409
0.41200000000000003,-0.9659334885255672
0.41300000000000003,-0.1416668772747144
0.41400000000000003,-0.436557061253115
0.41500000000000004,-0.7626993009888977
0.41600000000000004,-0.06485193630752044
0.417,-0.4781610177460559
0.418,-0.13375269810692558
0.419,-0.43614339591180956
0.42,0.19606041471358857
0.421,0.13873993214938404
0.422,-0.4312086689123808
0.423,-0.03939331409041287
0.424,-0.11945118885353218
0.425,0.10608097007223075
0.426,-0.5951548789799538
0.427,-0.11027806188689115
0.428,-0.01683834478418484
0.429,-0.8859512972729519
0.43,-0.7402341751876265
0.431,-1.0238926082712496
0.432,-0.5167262659306663
0.433,-0.23860959541079793
0.434,-0.01315509467979395
0.435,-0.44225587958477325
0.436,0.03332449959791875
0.437,-0.8506999755066054
0.438,-0.9211182419352181
0.439,-0.39439266201288375
0.44,-0.2270539182825514
0.441,-0.3165731290512459
0.442,-0.8944600384998405
0.443,-0.27412719029281996
0.444,-0.6197631793066622
0.445,-0.01781023022533325
0.446,-0.10876055518677999
0.447,-0.5099920430058795
0.448,-0.3993466988190631
0.449,-0.5858148486579512
0.45,-0.31269635532818796
0.451,-0.03314535499825842
0.452,-0.6381308136932887
0.453,-0.2081255530262364
0.454,-0.5273801105083822
0.455,-0.6057752471682013
0.456,-0.3898020745965301
0.457,-0.6486941630540606
0.458,-0.4766849176512814
0.459,-0.6366287379882951
0.46,0.3485407028240607
0.461,-0.19387120105365258
0.462,-0.38092905747927064
0.463,-0.07909593538725423
0.464,-0.15715064660320002
0.465,-0.17918052564250303
0.466,0.0721678711459008
0.467,0.10670079459485404
0.468,-0.2960586524725123
0.46900000000000003,-0.3317333205168115
0.47000000000000003,-0.2665777854878326
0.47100000000000003,-0.8996839882147974
0.47200000000000003,-0.6856573054760721
0.47300000000000003,0.16275080853436807
0.47400000000000003,0.23791285751726482
0.47500000000000003,-0.3292193090543873
0.47600000000000003,-0.07065935350130248
0.47700000000000004,-0.13003628430942182
0.47800000000000004,0.728409749548663
0.47900000000000004,0.1745500208479305
0.48,-0.16272022102665823
0.481,-0.37400993125449733
0.482,-0.5352907513227154
0.483,0.03593723523663334
0.484,-0.2316545622129792
0.485,-0.4203667701721646
0.486,-0.18637774313088074
0.487,-0.32488128424426543
0.488,0.4898082211906372
0.489,0.226498481180011
0.49,-0.06505840917713873
0.491,0.3566533497927721
0.492,-0.08574889036056832
0.493,-0.38321255811134564
0.494,0.3241681687874157
0.495,0.03027775334074098
0.496,-0.4314016570173376
0.497,-0.15684839419754418
0.498,-0.3340290489663436
0.499,-0.45202463866847076
0.5,0.2778532642594924
0.501,0.610009711520209
0.502,-0.34822669919482596
0.503,0.2686375617796329
0.504,-0.07496496001714759
0.505,-0.014742355364752435
0.506,-0.04494912287817965
0.507,-0.1343699331910786
0.508,0.12351587103830147
0.509,-0.1619551430490761
0.51,0.14380366451610468
0.511,0.022922013070082632
0.512,-0.05535014472879112
0.513,-0.27185221545253274
0.514,-0.18062552131237733
0.515,0.22030802504058886
0.516,0.15502449491500225
0.517,-0.26816471791603186
0.518,0.08315654687421137
0.519,0.31276393608590625
0.52,-0.3764766407539833
0.521,0.32433051029642346
0.522,-0.0035326346958429733
0.523,0.39459093125043077
0.524,0.014648695455278096
0.525,-0.28695613301188205
0.526,-0.23268527483182933
0.527,0.26173695569740235
0.528,0.30901673733294865
0.529,-0.06218734873720329
0.53,0.3756400139755516
0.531,-0.33946817035728316
0.532,0.11708436859515914
0.533,-0.24275334150940153
0.534,-0.08346869347352126
0.535,0.12710924717746053
0.536,-0.1346717778892344
0.537,0.027923245338575237
0.538,0.4728992478458297
0.539,0.03138270578822695
0.54,0.4915844706704018
0.541,-0.06164668618564448
0.542,0.46953137942171386
0.543,0.7705920525256185
0.544,-0.3838003834280229
0.545,0.1288448208483553
0.546,0.5414244631508112
0.547,0.2984258918686903
0.548,0.45375676180401836
0.549,0.138492495133881
0.55,0.3198695623881064
0.551,0.22134762147363918
0.552,0.595521242115997
0.553,0.30435436009803496
0.554,0.3200208276383952
0.555,0.09514890503760474
0.556,0.08214046193345931
0.557,0.11762372209309914
0.558,0.39256305120136925
0.559,0.18046936037693936
0.56,0.4292060100332707
0.561,1.0003485919375297
0.562,0.6714409211581817
0.5630000000000001,0.3388624783917859
0.5640000000000001,0.8156243407226533
0.5650000000000001,0.3420617018042405
0.5660000000000001,-0.14757515024475462
0.5670000000000001,0.15144637887436369
0.5680000000000001,-0.1253333607104578
0.5690000000000001,0.3066689097308242
0.5700000000000001,0.3907821351447591
0.5710000000000001,0.8612606450285993
0.5720000000000001,0.4324439029683099
0.5730000000000001,0.2503633412437621
0.5740000000000001,0.5544995151609693
0.5750000000000001,-0.3588320955148916
0.5760000000000001,0.3837483411616473
0.577,0.5621241575428076
0.578,-0.08705644936529394
0.579,0.7309885335456532
0.58,0.5237128849993316
0.581,0.331812566164599
0.582,0.6773764131579567
0.583,1.1940712653752306
0.584,0.5847574054818258
0.585,0.6126195159120323
0.586,0.3984429949849191
0.587,0.2700166130048294
0.588,0.7547999822681538
0.589,0.22377917744801978
0.59,0.4738833973988284
0.591,0.28085405187546747
0.592,0.5425360088051294
0.593,0.47931285583152583
0.594,0.6786949350650833
0.595,0.21188332328770143
0.596,0.29109633901077914
0.597,0.09483611465474921
0.598,0.2794287646943517
0.599,0.5558376009733321
0.6,0.702624843141183
0.601,0.2316843745575281
0.602,0.7989211957696318
0.603,0.9686068928720228
0.604,0.701826942013262
0.605,1.1473303243317354
0.606,0.3487847583557808
0.607,0.19476872483735796
0.608,0.013796512342061064
0.609,0.9696425190763724
0.61,0.6874533222705621
0.611,0.444705066553973
0.612,0.5185550347706327
0.613,0.07577745874195
0.614,1.133850655103858
0.615,0.43482370524980707
0.616,0.43451844201195683
0.617,0.6343037962227625
0.618,0.5835910488633536
0.619,0.5348429579765513
0.62,0.26187102758054365
0.621,0.6717106848813024
0.622,1.123030610492051
0.623,0.9843698079256383
0.624,1.0730221617232425
0.625,0.4466352970706444
0.626,0.29818472765384935
0.627,0.5430077180492497
0.628,0.5751407352361504
0.629,0.8585276332817866
0.63,-0.00872602470031027
0.631,0.9265428465309972
0.632,0.39188590976864157
0.633,0.28850948806892956
0.634,0.0980686910524382
0.635,-0.10039965090249195
0.636,0.647076236407385
0.637,0.43541956308798346
0.638,0.04757617695237193
0.639,0.07285683620802365
0.64,0.3904082155773051
0.641,1.0215356832164368
0.642,0.4695351816042622
0.643,0.11722224989535225
0.644,0.5071985988610692
0.645,0.5024745096400145
0.646,-0.2312695218363191
0.647,0.545627075275193
0.648,0.4687590606753315
0.649,0.7171958812548422
0.65,1.0302150866311794
0.651,0.7806169619242047
0.652,0.33205013555073476
0.653,0.0565074567669413
0.654,1.1440667605737482
0.655,0.38265377314847226
0.656,0.371611739361598
0.657,0.37197669811243994
0.658,0.45826748931156974
0.659,0.38084316232782145
0.66,0.28031492416893855
0.661,0.316546642848564
0.662,0.4958732562400796
0.663,0.36194249250413857
0.664,0.322397530043843
0.665,0.5700824083295007
0.666,0.45370436373802137
0.667,0.9640613046087173
0.668,-0.30774908919183114
0.669,0.7838509959115789
0.67,0.7959895205002946
0.671,-0.2341547491388694
0.672,0.2537131461445527
0.673,0.21943233957798125
0.674,-0.10918953468627061
0.675,0.07116349091021128
0.676,-0.027494912833825005
0.677,0.8417746329135106
0.678,0.6150692087833004
0.679,0.7397959798442664
0.68,0.6017582406008654
0.681,0.07340742357805197
0.682,0.27854813571336806
0.683,0.6006846405179627
0.684,0.09722386764101924
0.685,0.6783838427624219
0.686,0.3831625446260278
0.687,0.32422329577725595
0.6880000000000001,0.6233915005897176
0.6890000000000001,0.511007345789708
0.6900000000000001,0.23398370321861786
0.6910000000000001,0.654563645632291
0.6920000000000001,-0.05009158979209312
0.6930000000000001,0.43217186052226175
0.6940000000000001,0.40635270654572064
0.6950000000000001,0.12584806308014773
0.6960000000000001,0.31657993568847087
0.6970000000000001,-0.14730596580791733
0.6980000000000001,0.5223947293801259
0.6990000000000001,0.21258015115837012
0.7000000000000001,0.13707571999052606
0.7010000000000001,0.6343908188996977
0.7020000000000001,0.1311098926297991
0.7030000000000001,-0.06319888122747763
0.704,-0.09868592706052083
0.705,0.5497163828931905
0.706,-0.026435839138720982
0.707,0.8645597209235585
0.708,-0.3139886963179883
0.709,0.7862022806986534
0.71,0.30418207721164336
0.711,0.17543633308405485
0.712,0.007535679038813914
0.713,0.26303074291314377
0.714,0.11216182096849746
0.715,0.44388021038749337
0.716,0.14635043346573828
0.717,0.16564204685790043
0.718,0.027824644525196264
0.719,0.14190416120708638
0.72,0.2764028070099559
0.721,-0.30394287900286643
0.722,-0.17335563981520857
0.723,0.4702906999058018
0.724,0.3068370879715033
0.725,0.19931349628167017
0.726,0.24915662233765132
0.727,0.32768584228098485
0.728,0.033326588895101525
0.729,-0.07216896503824988
0.73,0.18309852011173133
0.731,-0.20616403421014176
0.732,0.17583268195978638
0.733,-0.48567322574781885
0.734,0.31349602982538183
0.735,0.13546990201677578
0.736,0.06921479815228512
0.737,0.29522417834360204
0.738,0.5159766026699036
0.739,0.3423044654102647
0.74,-0.4895956526173418
0.741,-0.296543198146476
0.742,-0.07848619065384818
0.743,0.13265461277611595
0.744,0.28806676053421926
0.745,-0.086327884181383
0.746,0.17625784006252376
0.747,-0.1268680889335346
0.748,-0.11211176794666912
0.749,-0.3848136096752958
0.75,-0.2769699738332698
0.751,-0.44269010106407086
0.752,-0.36410554884411506
0.753,0.2163457482098899
0.754,-0.40504747736898294
0.755,0.658319359686561
0.756,0.015226315870784823
0.757,-0.06937646060440313
0.758,-0.36646671670921893
0.759,0.12276307194846359
0.76,-0.23535796465348324
0.761,-0.0013905015112165367
0.762,0.7516910921495082
0.763,-0.029234853077342318
0.764,0.35237612002758073
0.765,-0.20464358483062872
0.766,-0.015245885776776921
0.767,0.50613833516712
0.768,-0.24144697258177494
0.769,0.4563867683247108
0.77,0.0879806370542158
0.771,-0.3300624853507241
0.772,-0.00553217127125355
0.773,0.06835500421553559
0.774,-0.057083453752874144
0.775,-0.7255759131546105
0.776,-0.47371860928058085
0.777,-0.3215670623644382
0.778,-0.2534300155465186
0.779,-0.022906009528917127
0.78,-0.13075197606236133
0.781,-0.5595911559364364
0.782,-0.02284895288756346
0.783,0.06262420516581033
0.784,0.05585499551218595
0.785,0.2113445718838499
0.786,0.12672441466871948
0.787,-0.0055358848389913395
0.788,-0.19206111851909285
0.789,-0.7027385466999699
0.79,-0.11199137131108212
0.791,-0.2149590640627086
0.792,-0.22911647488851625
0.793,-0.7211460390743418
0.794,-0.6820099287326424
0.795,-0.05196754148962719
0.796,-0.3801693711536464
0.797,-0.15488929846979985
0.798,-0.3339174869534857
0.799,-0.31076120929990486
0.8,-0.012407484353435218
0.801,-0.4228642105564765
0.802,-0.2163503905357585
0.803,-0.3667106937191849
0.804,-0.3490888972455287
0.805,-0.3114636319149371
0.806,-0.16178219766509394
0.807,-0.3910157649380275
0.808,0.10249942918417718
0.809,-0.5751468952888705
0.81,-0.39833504621275306
0.811,-0.509647669826152
0.812,0.0239898551774467
0.8130000000000001,-0.3777031050886667
0.8140000000000001,-0.14570680223287924
0.8150000000000001,-0.9101524256217975
0.8160000000000001,-0.383747130547824
0.8170000000000001,-0.18698303346255463
0.8180000000000001,-0.41121901881467243
0.8190000000000001,-0.09247884242361003
0.8200000000000001,-0.5404431564180038
0.8210000000000001,0.0644747807096579
0.8220000000000001,0.3553037462467129
0.8230000000000001,-0.4249450680183184
0.8240000000000001,-0.43932859722615364
0.8250000000000001,0.13150684594783657
0.8260000000000001,0.16080766999013663
0.8270000000000001,-0.48772260752269914
0.8280000000000001,-0.4825754694974196
0.8290000000000001,-0.47239770324173086
0.8300000000000001,-0.8254991160612923
0.8310000000000001,-0.7319945242801004
0.8320000000000001,-0.7887840833516978
0.833,-0.7432026775651492
0.834,-0.5406029951803113
0.835,-0.4678889202609752
0.836,-0.07110111700276896
0.837,-0.8244761360659049
0.838,-0.21040251776190594
0.839,-0.5448009784883312
0.84,-0.4672526391287389
0.841,-0.2217054382550226
0.842,-0.7356586675499024
0.843,-0.26449130039022706
0.844,-0.3174972893237962
0.845,-0.21715286374168097
0.846,-0.2853082264264446
0.847,0.3481248125838275
0.848,-0.6040387379925811
0.849,-0.601946539560423
0.85,-0.6624704160750055
0.851,-0.6749771075588906
0.852,-0.729255557929888
0.853,-0.2052105758982728
0.854,-0.151645196649196
0.855,-0.7555154686891583
0.856,-0.8306281900181218
0.857,-0.42674046891486095
0.858,-0.7130795002976348
0.859,-0.3309496803029655
0.86,-0.4302667191089561
0.861,-0.9161037023262804
0.862,0.029687113524332988
0.863,0.1253391289971944
0.864,-0.5839616683641263
0.865,-0.512367818638034
0.866,-0.3159403864130179
0.867,-0.31623677205704825
0.868,-0.24172499754048948
0.869,0.13538361093709422
0.87,-0.5520975324623535
0.871,-0.7697593511020413
0.872,-0.9722190299539004
0.873,-0.80002280606172
0.874,-0.6050042655935619
0.875,-0.06163264094466364
0.876,-0.7503495634422745
0.877,-0.5136074085874753
0.878,-0.5633501303713687
0.879,-0.17375219570607547
0.88,0.25906636354795237
0.881,-0.626938382568908
0.882,-0.5861201120978061
0.883,-0.10332554593243481
0.884,-0.1971325567425946
0.885,0.1579548470635711
0.886,-0.22494660562102098
0.887,-0.5212118001675794
0.888,-0.2573679976669965
0.889,-0.12876939365223758
0.89,-0.2449989710051358
0.891,-0.36864701629742846
0.892,-0.22741018013659645
0.893,-0.21737645869708316
0.894,-0.16627382077559483
0.895,-0.38967861428742284
0.896,-0.6279318951412091
0.897,-0.517901429300539
0.898,-0.17608672978542667
0.899,-0.7534146731069863
0.9,-0.3649262654857069
0.901,-0.560649096758087
0.902,-0.4040932958367375
0.903,-0.00492967060725194
0.904,-0.31472909919281955
0.905,-0.35095727849728114
0.906,-0.7753897940816903
0.907,-0.1553381544372756
0.908,-0.20519680673888957
0.909,0.22482513108663513
0.91,-0.5447469967189084
0.911,-0.41485922692150135
0.912,-0.4308841321916537
0.913,-0.0517339399152249
0.914,-0.5648399245630775
0.915,-0.4544468822908299
0.916,-0.3478285760493158
0.917,-0.45688067108700414
0.918,-0.621471937691232
0.919,-0.3981719424653495
0.92,-0.10007443779307282
0.921,-0.6958169104068922
0.922,-0.3166285221245957
0.923,-0.5409008438584716
0.924,0.04545001494837736
0.925,-0.7614645686226064
0.926,-0.4733543949873997
0.927,-0.20292993736706688
0.928,0.13529151793124108
0.929,-0.37805452966791653
0.93,-0.551816479395856
0.931,0.1522241658889575
0.932,-0.8703083857221723
0.933,-1.1135140591356127
0.934,-0.3318578752926037
0.935,-0.6151005810164889
0.936,-0.7616300092126826
0.937,-0.2241626038523284
0.9380000000000001,-0.33696329599730945
0.9390000000000001,-0.5469519415649133
0.9400000000000001,-0.7263648725656116
0.9410000000000001,-0.04502750613897454
0.9420000000000001,-0.07916705510027666
0.9430000000000001,-0.2771439375727967
0.9440000000000001,0.3255687696590938
0.9450000000000001,-0.5397374247721907
0.9460000000000001,-0.6763975802932576
0.9470000000000001,-0.43560052807204785
0.9480000000000001,-0.25886242852470615
0.9490000000000001,-0.19504895729445804
0.9500000000000001,-0.36626344350313556
0.9510000000000001,-0.21407143219434338
0.9520000000000001,-0.7178748270497615
0.9530000000000001,0.07378987354038831
0.9540000000000001,-0.3929481785144207
0.9550000000000001,-0.032724648013059535
0.9560000000000001,-0.2548753626968507
0.9570000000000001,-0.20109550058211073
0.9580000000000001,-0.13965994197746526
0.9590000000000001,-0.14295280220644613
0.96,-0.04806000909059611
0.961,0.1942954923945555
0.962,-0.11205505417105896
0.963,0.06941121866903198
0.964,-0.1503729399821196
0.965,0.3191455188523048
0.966,-0.31499982948490696
0.967,0.41973061145390655
0.968,-0.1489556933826573
0.969,-0.5882203789588198
0.97,-0.14563095186910002
0.971,-0.41342313603658687
0.972,0.02109307788011066
0.973,-0.44309866548970556
0.974,-0.38943248649755424
0.975,-0.8213707164711332
0.976,-0.37931833819275595
0.977,-0.9505751286611697
0.978,-0.6704253400336281
0.979,0.06680194426084393
0.98,0.11139510401282417
0.981,0.04028946946112295
0.982,-0.34344969818420756
0.983,-0.03941526236612802
0.984,-0.005830100354859674
0.985,-0.34120006405062575
0.986,0.4586136126720223
0.987,0.26279180401275426
0.988,-0.08262352148002883
0.989,-0.029927694206467844
0.99,-0.0001517743978875474
0.991,-0.699850352401523
0.992,-0.18311259741103353
0.993,-0.3294225721122046
0.994,-0.4332550573619576
0.995,-0.2157253476304432
0.996,0.41907814733545595
0.997,0.09250606760763994
0.998,-0.24269726988575324
0.999,0.13459011502767804
1.0,0.4198066309758006
1.0010000000000001,0.3082918043113298
1.002,0.07666763620529769
1.0030000000000001,-0.11317933387417616
1.004,0.3045726457135926
1.0050000000000001,0.21804561562652486
1.006,0.3636636176378355
1.0070000000000001,0.2714532399420839
1.008,0.3736443398250465
1.0090000000000001,-0.1296688640306814
1.01,0.3952182196902986
1.0110000000000001,0.02837818197022176
1.012,0.5637997365583304
1.0130000000000001,-0.2876580448643691
1.014,0.4256834893200594
1.0150000000000001,-0.04062676496120566
1.016,-0.29053105271384894
1.0170000000000001,-0.22606744965379016
1.018,-0.15488271768754291
1.0190000000000001,0.0963480844830849
1.02,0.15685064641064791
1.0210000000000001,-0.1412083017440766
1.022,0.05147214755095345
1.0230000000000001,0.7235828070210573
1.024,0.6133686026597284
1.025,0.2308971009022096
1.026,0.10650669507997486
1.027,0.11691109745297609
1.028,0.24283391704837273
1.029,-0.2759360701220252
1.03,-0.07721296122700617
1.031,-0.5314769216007674
1.032,0.06098841155233635
1.033,0.11325708247332819
1.034,-0.24006159031932858
1.035,0.3721960289870099
1.036,-0.46283535053021746
1.037,-0.520214163500441
1.038,0.008557020338747577
1.039,0.28322779134614884
1.04,0.5051783074373621
1.041,-0.10676357942318694
1.042,0.3823827752586353
1.043,0.06934915858728131
1.044,0.04331746164727019
1.045,0.3650979812460017
1.046,0.29080251515354133
1.047,-0.39201594765777914
1.048,0.5017406301470136
1.049,0.44492910568173394
1.05,-0.18766881045285932
1.051,0.08783936059372867
1.052,0.08943053065557136
1.053,-0.00269956969032073
1.054,-0.26019719778314176
1.055,-0.30148701038141545
1.056,-0.10277187292694759
1.057,0.2709170063403131
1.058,0.10430152114908393
1.059,-0.1420859990633259
1.06,0.23150961319450283
1.061,-0.8236610867515296
1.062,0.40340823534088044
1.063,-0.44101243419593766
1.064,-0.013626630791424232
1.065,-0.2359009683878432
1.066,-0.2932987910867574
1.067,0.4291497356510527
1.068,-0.08153183516432075
1.069,0.13485286395670987
1.07,-0.01407617366375924
1.071,0.11221054872944446
1.072,-0.03573195791117194
1.073,-0.4657993666940658
1.074,0.20377439420462518
1.075,-0.24812697494839375
1.076,-0.56208022122744
1.077,-0.20933624772726792
1.078,0.3914494119610457
1.079,0.22416482319655165
1.08,-0.10459564032235481
1.081,-0.07387561185803226
1.082,-0.03771199013596711
1.083,0.7039260945057465
1.084,0.20968628729898248
1.085,0.2290124941573209
1.086,0.40419068783906764
1.087,0.15253844714544887
1.088,-0.01893411851696715
1.089,-0.028003255287996284
1.09,-0.021480377824221047
1.091,-0.04206837039044782
1.092,0.15951033786184254
1.093,-0.06531793369530384
1.094,0.12468637153515758
1.095,-0.1242149740325747
1.096,-0.07151509453468817
1.097,-0.6803619047971278
1.098,0.21611977718149977
1.099,0.07304484333190499
1.1,0.29940303295789644
1.101,-0.8379749140206124
1.102,0.6852909366634687
1.103,0.03902481099094091
1.104,0.4275604966507708
1.105,-0.21197177813765927
1.106,0.2789378231482848
1.107,-0.23512296951460077
1.108,-0.128352162979496
1.109,0.6051111055975297
1.11,-0.05720472022900936
1.111,0.03432816251642358
1.112,0.20224179397737663
1.113,0.06780286695428565
1.114,-0.049979980086444345
1.115,0.00948830073986763
1.116,0.6259190239419683
1.117,-0.09818733854756899
1.118,0.0015511887852438441
1.119,0.2842946193647887
1.12,0.3316577798873995
1.121,0.3870107911056063
1.122,0.25039759183800414
1.123,-0.26199977438164995
1.124,0.5851351113198456
1.125,-0.24390361790560636
1.1260000000000001,0.18589629120122456
1.127,-0.14538105556831335
1.1280000000000001,0.039537021251344916
1.129,0.12953042252854002
1.1300000000000001,0.09640716463507869
1.131,0.09567452683308879
1.1320000000000001,0.4253348554883416
1.133,0.05515859101669947
1.1340000000000001,-0.1683526422167112
1.135,0.1892261504865072
1.1360000000000001,0.2617354950478772
1.137,-0.44918404397859235
1.1380000000000001,0.12044149572571385
1.139,0.17945012325577797
1.1400000000000001,-0.08926905100799543
1.141,0.4436137434309814
1.1420000000000001,0.013761849119493623
1.143,0.1185746354789565
1.1440000000000001,0.04318410434435538
1.145,0.10467371427444025
1.1460000000000001,-0.23377687443904704
1.147,-0.351113565340793
1.1480000000000001,0.537130044196736
1.149,-0.2231867050580058
1.1500000000000001,-0.2974177048368989
1.151,-0.676918733518609
1.1520000000000001,-0.25046704953610144
1.153,-0.477828637459746
1.154,0.3974988964113965
1.155,0.20294512680279025
1.156,-0.3015507551828327
1.157,0.5948290421658
1.158,0.2357511208682284
1.159,-0.1283511144900803
1.16,-0.7498217144620719
1.161,0.7181844712147161
1.162,-0.35809321479983347
1.163,-0.4127179246495716
1.164,0.4018767812324059
1.165,0.8319257219017818
1.166,0.5103874971826714
1.167,0.25007443545320107
1.168,0.23720482772883655
1.169,0.2869263670715869
1.17,0.2276785769360306
1.171,0.053455727753314794
1.172,-0.027518194043681603
1.173,-0.09967963780735199
1.174,-0.3212950282895181
1.175,-0.1842025230600322
1.176,-0.6029926958881319
1.177,-0.11040358747591879
1.178,-0.35535585737452224
1.179,-0.36197849460222686
1.18,0.053968245346041374
1.181,0.4485023853408767
1.182,0.334273507029942
1.183,-0.3902484816494584
1.184,-0.2017827893415863
1.185,0.38223135639646477
1.186,-0.19964056643197628
1.187,0.013511754438387091
1.188,0.22379415493661345
1.189,-0.2596016370215994
1.19,0.0316126518437912
1.191,-0.4311093479129572
1.192,-0.23918881841461137
1.193,0.015032880805263743
1.194,-0.5730037716890154
1.195,0.032142421388119694
1.196,-0.10099699130751953
1.197,0.08484528688764922
1.198,0.008395714990149641
1.199,0.37834042955466096
1.2,0.03756735079437355
1.201,-0.09791996290008102
1.202,0.09546777613893154
1.203,0.24389110814841308
1.204,0.10976367272722556
1.205,0.1121775073611647
1.206,-0.11549185471251108
1.207,-0.11796857582779206
1.208,-0.3620030563106584
1.209,0.5557747223935751
1.21,-0.3731589706173858
1.211,-0.23877325877627142
1.212,-0.2743007049000048
1.213,0.1875756136458363
1.214,-0.18359055511712402
1.215,0.27432262180212014
1.216,-0.29715283890267635
1.217,0.0027965492296475464
1.218,-0.3093826412071731
1.219,0.6126430388945221
1.22,-0.3562795257088546
1.221,0.12384791250560648
1.222,0.24891158950887418
1.223,0.2050414286729449
1.224,0.039519353966202854
1.225,0.061053790079972144
1.226,0.10824909322324905
1.227,0.03680109894894708
1.228,0.3479422602677197
1.229,0.6940585999148953
1.23,-0.16724753550234822
1.231,-0.44184259331122056
1.232,-0.08526313973462482
1.233,0.6930111018587974
1.234,-0.3362080220204342
1.235,0.39173504163322026
1.236,0.4082045925934174
1.237,-0.2469781719498927
1.238,0.11191639852633492
1.239,0.45761728750107045
1.24,-0.11373832229624337
1.241,-0.030172408593212355
1.242,-0.1157257489553456
1.243,-0.2235253197703625
1.244,-0.09967761189028745
1.245,-0.267182080028677
1.246,0.1053306921072829
1.247,-0.15009026988010093
1.248,0.12891429876647287
1.249,-0.43586699442359617
1.25,0.09926406966433544
1.2510000000000001,0.21915698904517683
1.252,-0.6568992180006833
1.2530000000000001,0.031315271516774754
1.254,0.27319504611247153
1.2550000000000001,-0.4628923056073616
1.256,0.4066660644217956
1.2570000000000001,0.044804003372321335
1.258,-0.2702820819567675
1.2590000000000001,-0.04763242273480481
1.26,0.1674980737565173
1.2610000000000001,0.05370331686122298
1.262,0.2204053229631565
1.2630000000000001,-0.1953003784863136
1.264,0.14591389884033917
1.2650000000000001,-0.32411434907149406
1.266,0.061737833224905635
1.2670000000000001,-0.19027059300194404
1.268,-0.1618804575476843
1.2690000000000001,0.40172965200061983
1.27,0.3273930361782812
1.2710000000000001,0.15183973683465457
1.272,-0.38647235463102314
1.2730000000000001,-0.17582423434593952
1.274,0.26882365836423955
1.2750000000000001,-0.05748492590802857
1.276,0.6006932103649939
1.2770000000000001,0.037093652380818076
1.278,-0.0011637902822370927
1.2790000000000001,-0.12363663869824006
1.28,0.040062271434683126
1.281,-0.014839251476671096
1.282,0.27121112823582577
1.283,0.3679123944758702
1.284,-0.14069118652286972
1.285,-0.29936988606733345
1.286,-0.45575596030147425
1.287,0.23329909751126054
1.288,-0.27223145662291465
1.289,-0.6149654784482488
1.29,0.11657358135928618
1.291,0.7169981557923462
1.292,-0.06059979869121575
1.293,0.17064553289799816
1.294,-0.07055684406524702
1.295,-0.1296668959573428
1.296,0.18061729326681555
1.297,-0.16798406269409016
1.298,0.021439168992322573
1.299,0.06560764242130698
1.3,-0.20042713609291266
1.301,0.32851440429845225
1.302,0.006290598220624291
1.303,-0.14582184841035967
1.304,0.25605860470063724
1.305,-0.16954039453731118
1.306,0.10355999884025378
1.307,0.07816600044423433
1.308,0.38454719497871803
1.309,0.17331116930148396
1.31,-0.007508087623544058
1.311,0.21442819032259172
1.312,0.3582837394759434
1.313,0.08644139246806558
1.314,-0.09199986567650169
1.315,-0.49355086970504786
1.316,-0.41463975055212565
1.317,-0.17246911074389631
1.318,-0.2416321858770304
1.319,-0.08699309033312755
1.32,0.016994977469131953
1.321,0.18980952574451262
1.322,0.03762889181152236
1.323,0.226852192585353
1.324,0.1144479760725516
1.325,-0.49263996990616143
1.326,-0.18669496651611206
1.327,0.037675432721012
1.328,-0.30412989762308595
1.329,0.2108803184363561
1.33,0.4592252497031048
1.331,0.3347268560717026
1.332,-0.12281138650831125
1.333,0.36631614161749043
1.334,-0.050505414468883486
1.335,-0.2011257913354118
1.336,-0.2791264506917965
1.337,-0.17164260538393245
1.338,-0.17523157079161583
1.339,0.020223167275150507
1.34,0.0481721943149627
1.341,0.03181550548352108
1.342,0.18985997615315292
1.343,0.4380955818733969
1.344,0.37997189226191375
1.345,-0.34546939053497105
1.346,-0.6710706888410716
1.347,0.36119767280927667
1.348,-0.35128508429538285
1.349,-0.036527921130308234
1.35,-0.35103390781781013
1.351,-0.5714958307115016
1.352,0.10366029323218469
1.353,0.14684484865330016
1.354,-0.26805877184753213
1.355,-0.8773126876434729
1.356,-0.25897898610526005
1.357,0.03663950218326874
1.358,-0.5024519958614829
1.359,0.02410627649625425
1.36,-0.00459295475189749
1.361,0.2046891493178212
1.362,0.09465263575349682
1.363,-0.2110189828269734
1.364,0.4540771021288633
1.365,0.05244112809190898
1.366,0.08691428977653425
1.367,-0.19907868828446296
1.368,-0.07420615012820789
1.369,-0.2345391147705768
1.37,-0.051883817977032676
1.371,0.4826108446052093
1.372,-0.4703488681086569
1.373,-0.5649701188005183
1.374,0.34624544661856516
1.375,-0.16279710314555984
1.3760000000000001,-0.2958274732274891
1.377,0.23106970678132976
1.3780000000000001,-0.24046318715030532
1.379,0.5169012146265863
1.3800000000000001,0.20337776140178543
1.381,-0.11547172300621816
1.3820000000000001,0.7059709892089001
1.383,-0.10081277746350618
1.3840000000000001,0.31773426323230913
1.385,0.18978777412194758
1.3860000000000001,0.48562803844915386
1.387,0.5493550584555495
1.3880000000000001,0.06837976994897234
1.389,-0.1951236616663595
1.3900000000000001,0.1379916428817313
1.391,-0.23421631036312884
1.3920000000000001,0.5452376490287341
1.393,-0.03994110011267347
1.3940000000000001,-0.2047021170231493
1.395,-0.04459590824052747
1.3960000000000001,-0.49924353848842373
1.397,-0.37238591099068985
1.3980000000000001,0.3013456471540844
1.399,-0.22796998312891525
1.4000000000000001,-0.3140732948045793
1.401,0.19189752519568185
1.4020000000000001,0.41448977162815104
1.403,0.29658769263701407
1.4040000000000001,0.3939199573712613
1.405,-0.12703852657083825
1.4060000000000001,-0.33143754839303974
1.407,0.531301795024141
1.408,-0.03802542642339202
1.409,-0.04434820549902204
1.41,0.39845824255472156
1.411,0.13596730338270302
1.412,0.07798780639523581
1.413,0.5685990040328284
1.414,-0.28816112074355715
1.415,0.17835203842437114
1.416,-0.07800171416039012
1.417,-0.0003240157785152492
1.418,0.3997620026945099
1.419,0.12144902744939393
1.42,0.16148882371489026
1.421,0.35265390063043456
1.422,-0.05070729363361999
1.423,-0.17086120076420575
1.424,-0.21833710657679611
1.425,-0.4899069768128005
1.426,0.7119677906116124
1.427,-0.25006081027901195
1.428,-0.007597561846481152
1.429,-0.052142290529181984
1.43,0.09222200934273089
1.431,0.2138194643242907
1.432,0.19936352127867887
1.433,-0.25582493100817705
1.434,-0.14524216576543883
1.435,-0.015226014853510106
1.436,-0.16971298948458025
1.437,0.40130197336850415
1.438,0.08851396026222867
1.439,0.18956163637745
1.44,0.19886438060022202
1.441,0.3829438566830947
1.442,0.11308499284036054
1.443,-0.3081478849492591
1.444,0.21501203715530753
1.445,-0.09540706813754872
1.446,-0.06347935289541058
1.447,0.2568109050640222
1.448,0.4302634466593383
1.449,0.03728317245830935
1.45,0.09264990377969198
1.451,0.4797627839530751
1.452,0.013447428617322885
1.453,0.6996032348166209
1.454,0.07454724205994852
1.455,-0.6282288277467453
1.456,0.1308968347018447
1.457,0.033445816027338454
1.458,0.3281473009955752
1.459,0.17105270594349561
1.46,-0.04153679519513038
1.461,-0.3363877714493144
1.462,-0.003928451956560858
1.463,-0.17425443682529312
1.464,-0.07905138331190242
1.465,0.27657352132618285
1.466,0.5960770029349372
1.467,0.1993031583843865
1.468,-0.29998639338130595
1.469,0.1642824999035351
1.47,0.35898944599369464
1.471,-0.21383657073331427
1.472,-0.09898367523112116
1.473,-0.07649524101873718
1.474,-0.33057514555418777
1.475,0.09448413015315772
1.476,-0.1313900962118502
1.477,0.04495803373461553
1.478,-0.3250261785698756
1.479,-0.16213918953451706
1.48,0.216714407348331
1.481,-0.08094824619003149
1.482,0.5768676805992665
1.483,-0.03898915624688502
1.484,0.16251106935508125
1.485,0.37977724956192693
1.486,-0.3304040682503935
1.487,-0.44734094415673936
1.488,-0.3989183691417819
1.489,0.4096769304656442
1.49,-0.16555744376773254
1.491,0.7365580862629781
1.492,-0.22805280482646528
1.493,-0.02553630847838729
1.494,0.36752733414084754
1.495,0.5018278664477369
1.496,0.5233454213614046
1.497,0.28160816974044867
1.498,0.24844023251419137
1.499,0.14685638532286435
1.5,0.23350832284998876
1.5010000000000001,-0.13445401546106348
1.502,-0.1866811397974443
1.5030000000000001,0.07988936221421214
1.504,0.04405026487203627
1.5050000000000001,-0.035968414798182566
1.506,0.30402188586652956
1.5070000000000001,0.3674932620086446
1.508,0.08530059111680244
1.5090000000000001,0.47416072375407015
1.51,-0.34250673424005357
1.5110000000000001,-0.08899953722141636
1.512,-0.2738252214100884
1.5130000000000001,-0.6408626845594151
1.514,-0.119909857382326
1.5150000000000001,-0.13652425251498507
1.516,0.35892927134312397
1.5170000000000001,0.10834180592894127
1.518,-0.366034572528006
1.5190000000000001,0.5253260704627638
1.52,0.3663101086576069
1.5210000000000001,0.20553101047808464
1.522,-0.009166704425703491
1.5230000000000001,-0.20693007157954746
1.524,-0.0165563811918
1.5250000000000001,0.4266245859112558
1.526,0.6604815434098983
1.5270000000000001,0.5438747579191493
1.528,-0.08787630130663684
1.5290000000000001,-0.30498353054921506
1.53,0.04226587407336128
1.5310000000000001,-0.5614335091063544
1.532,0.03817178902618462
1.5330000000000001,-0.1251824753270998
1.534,-0.23491660218998822
1.5350000000000001,-0.5784109201800386
1.536,0.058974380341400776
1.537,-0.24071195133607
1.538,-0.40975357594233264
1.539,-0.8925803634219894
1.54,-0.008254471515192052
1.541,0.5625771784384156
1.542,0.55715628959361
1.543,-0.05622717753838634
1.544,-0.08555796647901892
1.545,0.2406322768225071
1.546,-0.20440998012697292
1.547,0.17143926938333703
1.548,0.28860260874465415
1.549,0.398981666602788
1.55,-0.030046222943989263
1.551,-0.09200382449058118
1.552,-0.3221733012562164
1.553,-0.3289658056494526
1.554,-0.16304931919997467
1.555,0.010209652044853426
1.556,0.17896973624045998
1.557,-0.32185538464159796
1.558,0.38902804545860853
1.559,-0.11223877975026737
1.56,-0.006410188304528493
1.561,-0.19326180430685122
1.562,-0.6684935528526352
1.563,0.3461153183458089
1.564,0.31615882075724633
1.565,0.015601732864535964
1.566,0.11520286679697678
1.567,0.23568346474872498
1.568,-0.40998523183671853
1.569,-0.12781410376639066
1.57,0.23827940388654684
1.571,-0.4071885263882696
1.572,0.029288854420737864
1.573,-0.4878762408245148
1.574,0.044823343100541924
1.575,-0.11069244468924505
1.576,-0.5796451964011666
1.577,0.26852010689965566
1.578,-0.2791559982686599
1.579,-0.2739774305418077
1.58,0.06017075916928305
1.581,0.3754929042661083
1.582,-0.245968020464269
1.583,0.09940565439188417
1.584,0.22375060172868752
1.585,0.30793168217894323
1.586,0.14803811821268165
1.587,-0.029206652287500273
1.588,-0.1894985409653699
1.589,0.056744864351406826
1.59,-0.3216417035956869
1.591,-0.907306844485875
1.592,0.07218941601805118
1.593,0.19027875288836318
1.594,-0.8039853822920686
1.595,-0.4029192114129812
1.596,0.09064062667204488
1.597,0.5363469414760159
1.598,-0.0525404129266245
1.599,-0.24930258180623577
1.6,-0.05486893233144832
1.601,0.4433646251819525
1.602,-0.13501072850811227
1.603,-0.1588559025575813
1.604,-0.04971740502509299
1.605,-0.1859985824776137
1.606,0.13190674642795341
1.607,0.5683052369783625
1.608,0.15570230716405187
1.609,-0.044804351200389836
1.61,-0.08754338067466588
1.611,-0.49985894204649317
1.612,0.20615440791489564
1.613,-0.10425285854133473
1.614,-0.14924962570670408
1.615,0.8579322703534582
1.616,-0.005479779119809236
1.617,-0.30643901446605026
1.618,-0.18668580409090701
1.619,0.3136320133215344
1.62,0.0339811231613309
1.621,-0.40058169405771493
1.622,0.33454720560181217
1.623,-0.11954152622420469
1.624,0.6570949844947798
1.625,0.4240144197143945
1.6260000000000001,-0.039090917068111686
1.627,0.4652066079580295
1.6280000000000001,0.0791351783874659
1.629,0.28673380197415893
1.6300000000000001,0.14541984518833626
1.631,-0.2848086959347615
1.6320000000000001,-0.2518434749244889
1.633,0.22808654583685217
1.6340000000000001,-0.195538251261478
1.635,-0.221094538972599
1.6360000000000001,-0.38164242543432164
1.637,0.046178020240542045
1.6380000000000001,0.5599789505437023
1.639,-0.35116157371377055
1.6400000000000001,0.007265837001832517
1.641,0.4545678660621272
1.6420000000000001,0.03488610785553487
1.643,0.21661323831241572
1.6440000000000001,-0.22361240681454853
1.645,0.22849212916229455
1.6460000000000001,0.03896237212814796
1.647,0.37662069814145577
1.6480000000000001,0.41499434069866736
1.649,0.8077707920430739
1.6500000000000001,0.17388995196406867
1.651,0.06683719553715255
1.6520000000000001,-0.0004632347560477451
1.653,-0.18685158728070142
1.6540000000000001,0.006439501408992257
1.655,-0.1886204230417088
1.6560000000000001,-0.04456735874862864
1.657,0.3143775612448971
1.6580000000000001,-0.36074129481313527
1.659,0.31106186890122284
1.6600000000000001,0.3951345202019625
1.661,-0.004518858659827256
1.6620000000000001,-0.5777779444733308
1.663,-0.10144489669083544
1.6640000000000001,0.484204015597851
1.665,0.09313958131033535
1.666,-0.20468501805895645
1.667,-0.07053077693097375
1.668,0.3109645331806189
1.669,0.19492176989790558
1.67,-0.07167962975091015
1.671,-0.1409490229819016
1.672,-0.17630596994239336
1.673,-0.3576247547870444
1.674,0.3895070552113181
1.675,-0.19669614076340197
1.676,0.2700419046181318
1.677,0.3754931161392433
1.678,0.24071474421514344
1.679,-0.16038779325290733
1.68,0.12111902710098361
1.681,0.02364301752021946
1.682,-0.21233203298979253
1.683,0.17820948395397393
1.684,-0.2586062857184267
1.685,0.4563038165384691
1.686,-0.044279537560000484
1.687,0.14124959619934452
1.688,0.14376488669308818
1.689,-0.046769792673729355
1.69,0.17600814044258273
1.691,-0.17337279642425063
1.692,0.20261066400792818
1.693,-0.48469560351152363
1.694,-0.05719177776559019
1.695,0.48167869971748545
1.696,-0.3952050490111867
1.697,-0.2842251905949488
1.698,0.0953938296684281
1.699,0.02297283514438452
1.7,0.10518902978206639
1.701,0.1776578384817913
1.702,0.24919496579777514
1.703,0.4138116520243654
1.704,0.21805124870806716
1.705,0.027622703614437263
1.706,0.296877761990334
1.707,0.6508662799060587
1.708,0.01898840131447522
1.709,-0.26145709196369654
1.71,0.3321242007860943
1.711,-0.06701604862358151
1.712,-0.7105793890334542
1.713,0.17332480370762865
1.714,-0.2557041074156934
1.715,-0.12715998469124823
1.716,0.004488447541189433
1.717,-0.02375179550377473
1.718,0.1540570199124637
1.719,-0.1615476106084499
1.72,0.1539317394528213
1.721,-0.046962303837674135
1.722,0.28042166949549335
1.723,0.2655119446414132
1.724,-0.18552595898386234
1.725,0.4257946348525096
1.726,-0.06568338190469915
1.727,0.3233190389218388
1.728,0.1689647192496512
1.729,0.5823568024760238
1.73,-0.06703979471155103
1.731,-0.13569673827295925
1.732,-0.06460440699557055
1.733,-0.17185563428777917
1.734,0.1448769189530991
1.735,-0.5848931825309763
1.736,-0.4112103773734218
1.737,-0.40124257591125384
1.738,0.22631375236282283
1.739,0.48228231233708935
1.74,-0.03133476556123577
1.741,-0.019744817519504215
1.742,0.0797941741632043
1.743,0.42946519021995305
1.744,-0.18310028862765662
1.745,0.17151069482043552
1.746,0.38766494056424483
1.747,0.23122995041944344
1.748,0.11565301020887378
1.749,0.3312155272076315
1.75,-0.8109696878997756
1.7510000000000001,0.1724608964217743
1.752,-0.25500123016747617
1.7530000000000001,-0.6300915684944323
1.754,0.05825512822797897
1.7550000000000001,0.31209756354888735
1.756,-0.13634020601782382
1.7570000000000001,0.20496066472339114
1.758,0.4249049521673512
1.7590000000000001,0.363572636637724
1.76,0.4919893588114214
1.7610000000000001,0.2535399467590646
1.762,0.08140861689972598
1.7630000000000001,-0.3996880441316559
1.764,0.02128690519053035
1.7650000000000001,-0.1529739785948575
1.766,0.7463884668788606
1.7670000000000001,0.028135955707790136
1.768,0.09573996726458901
1.7690000000000001,0.1963473122496315
1.77,0.013080733911733665
1.7710000000000001,0.47761361269172997
1.772,-0.24557333374958287
1.7730000000000001,-0.02251946286632789
1.774,-0.31784682733892905
1.7750000000000001,-0.4960067533662117
1.776,-0.27863637890109905
1.7770000000000001,-0.09201273855201536
1.778,-0.18756919258442217
1.7790000000000001,-0.23862799339964905
1.78,-0.42189523910154875
1.7810000000000001,0.00597002764888644
1.782,-0.39263758698005424
1.7830000000000001,0.30891848854438086
1.784,0.11983757750986525
1.7850000000000001,-0.3372654498394792
1.786,0.0023429285145546985
1.7870000000000001,-0.14474522223968256
1.788,0.15453087835499918
1.7890000000000001,0.43303683324443665
1.79,-0.5625517408937237
1.7910000000000001,0.0036061243067204915
1.792,-0.10681836389923766
1.793,0.12050032349764696
1.794,-0.0311466631582107
1.795,-0.3255907995216457
1.796,-0.1908218323294995
1.797,-0.31970945647853977
1.798,0.26402361635033356
1.799,-0.024508204835911644
1.8,0.5703572057259014
1.801,0.01270345529310659
1.802,-0.15374350484389418
1.803,-0.37321261834635605
1.804,-0.44583625124726634
1.805,-0.3752407829016469
1.806,0.17524364693295943
1.807,0.23351920640647383
1.808,-0.41557868538039316
1.809,0.2994131936603299
1.81,-0.14491831550502998
1.811,0.013136204158173011
1.812,0.4248876632473743
1.813,0.1881500953221681
1.814,-0.17566484600126647
1.815,-0.3673576676245862
1.816,-0.7406502720283062
1.817,-0.29664769521022033
1.818,-0.12211759687755601
1.819,-0.32705555758285154
1.82,-0.03937709012769436
1.821,0.053957264325121226
1.822,-0.00867826931317145
1.823,-0.11409907480954708
1.824,0.14570205321953475
1.825,0.2325821948708227
1.826,-0.23201407160333876
1.827,0.504181413361376
1.828,0.02920208554397003
1.829,0.03655658632095169
1.83,0.21246432697695977
1.831,0.03906313994156076
1.832,0.22716246494472228
1.833,0.005235550123050381
1.834,-0.2788368640216475
1.835,0.00845105756183051
1.836,-0.4382235138257139
1.837,-0.04833378770453862
1.838,-0.06874752242258765
1.839,-0.09333675661926032
1.84,-0.03856125343167295
1.841,-0.5336530142117921
1.842,-0.10583894709303807
1.843,0.10875516977983067
1.844,0.1430625692287359
1.845,-0.20830254227778744
1.846,0.4748180038889259
1.847,-0.17895075502685404
1.848,0.3496156853872621
1.849,0.15906000799900488
1.85,-0.1938681929531461
1.851,0.501691568345355
1.852,-0.41686957475619346
1.853,0.19484455264550485
1.854,0.20506904378337804
1.855,-0.3011860627229935
1.856,0.32263393838978255
1.857,-0.15591565381718264
1.858,0.027829563554715143
1.859,0.04719485219387656
1.86,-0.04029262244116023
1.861,0.2741441813854321
1.862,0.2968251413949125
1.863,-0.4436578925339592
1.864,0.4864077244929609
1.865,-0.3987475964107023
1.866,0.40486951293201007
1.867,0.41891324048577244
1.868,-0.26851140383531663
1.869,-0.09234258694888477
1.87,-0.33171140054578374
1.871,-0.09537800852411704
1.872,-0.15118881048497013
1.873,0.1529964602433076
1.874,0.2979869722063642
1.875,0.31870514323698684
1.8760000000000001,-0.26375605960300386
1.877,-0.14366826156084975
1.8780000000000001,-0.5638099828955287
1.879,-0.27266271938634834
1.8800000000000001,0.2894554899292392
1.881,0.5155765465019649
1.8820000000000001,-0.31152613633472975
1.883,-0.09683757830837454
1.8840000000000001,0.08718392454183985
1.885,0.18404834764588202
1.8860000000000001,-0.14777540434698028
1.887,0.20812001277671893
1.8880000000000001,-0.08337327889203028
1.889,0.026566018174009
1.8900000000000001,0.16388527440110898
1.891,-0.028975018494213058
1.8920000000000001,-0.1896942923872258
1.893,-0.11378464061524235
1.8940000000000001,-0.12161453939111821
1.895,-0.21100330896463831
1.8960000000000001,-0.1727444704296446
1.897,0.3986924517139224
1.8980000000000001,0.10949730915312617
1.899,-0.11954579484624187
1.9000000000000001,0.2090863213532205
1.901,-0.0692441474893096
1.9020000000000001,0.41071591650524675
1.903,0.1917943570969206
1.9040000000000001,0.06291500842824863
1.905,0.23431507774308324
1.9060000000000001,-0.37615719399103553
1.907,-0.25712854123544826
1.9080000000000001,-0.2993989766904703
1.909,0.0737846278666068
1.9100000000000001,0.5197544998455175
1.911,0.6384883444202973
1.9120000000000001,0.1326368052029737
1.913,0.06935164304583859
1.9140000000000001,-0.6354229718753386
1.915,-0.2628021399202065
1.9160000000000001,-0.3314407772019862
1.917,-0.2671559789128287
1.9180000000000001,-0.10922167080468408
1.919,-0.172528872746634
1.92,-0.5937899431127386
1.921,0.25527477627275147
1.922,-0.26304438249269857
1.923,0.1526757586708427
1.924,0.7173304525545051
1.925,-0.17581537747592701
1.926,-0.663980605194384
1.927,-0.004899567126538648
1.928,0.3890664157288194
1.929,0.618405935703675
1.93,-0.3688648783357216
1.931,0.11810806753345539
1.932,-0.1983716622632585
1.933,-0.11268620572873791
1.934,0.6981973524755942
1.935,-0.5508910985185459
1.936,-0.018983753181143204
1.937,0.05940625209213472
1.938,0.2669573722525552
1.939,-0.0015067533962292191
1.94,0.09241516185122618
1.941,-0.08659287078903723
1.942,0.13951660760278303
1.943,-0.022055983211726554
1.944,0.2815772185863312
1.945,-0.010883100813090213
1.946,0.2082357698001715
1.947,0.07212285533200234
1.948,0.39659360046090025
1.949,0.015483582360942192
1.95,-0.5319097404620589
1.951,0.34767475077669846
1.952,-0.33049821548803565
1.953,-0.2770316010321419
1.954,-0.27380403984256324
1.955,0.3123314279512452
1.956,-0.7358079158231245
1.957,0.8604228606605016
1.958,0.25803851749056483
1.959,0.0360699748012588
1.96,-0.01646820018488121
1.961,0.11656792189479512
1.962,0.21511525374305057
1.963,0.27446637522251244
1.964,0.26178699143054984
1.965,0.12687420437657465
1.966,0.03590412553731841
1.967,0.03551971434143692
1.968,0.0003060411234472593
1.969,0.37103272849760943
1.97,0.17806701668425493
1.971,-0.913018289836781
1.972,0.13799170772968006
1.973,-0.02248084102186225
1.974,-0.10071827856328418
1.975,-0.21655553592666577
1.976,0.24212816436628748
1.977,0.20335623919936627
1.978,-0.29064182557632595
1.979,0.09121398669986938
1.98,-0.29149702036238323
1.981,-0.38298374999918317
1.982,-0.12923664214774216
1.983,0.33961974115232163
1.984,0.3810431652423406
1.985,0.2539256260291879
1.986,0.31263438768391605
1.987,0.23575518557197922
1.988,-0.13366595333764153
1.989,0.16047846283967435
1.99,0.2401228575683032
1.991,0.1953856995065773
1.992,0.2978954862131464
1.993,0.13158945472281902
1.994,0.01032881063296058
1.995,0.22104507149492825
1.996,-0.10306202940423172
1.997,-0.34546409480580764
1.998,-0.10769861441237413
1.999,-0.2543724928794279
2.0,-0.20255348249231406
2.001,-0.006170881835485982
2.0020000000000002,-0.16638240334906432
2.003,0.00735833188075477
2.004,-0.4478565893667373
2.005,0.1953833719765376
2.0060000000000002,0.1331306970021484
2.007,-0.1202992916075923
2.008,0.30673308318457476
2.009,0.3686009331622021
2.0100000000000002,-0.4196013425285498
2.011,-0.1908239876650484
2.012,-0.2144084356050555
2.013,-0.28155404717271
2.0140000000000002,0.2412483304376466
2.015,-0.06445718433897799
2.016,-0.07460511376549372
2.017,-0.576056853798494
2.0180000000000002,0.2439822643082223
2.019,-0.2844297193816737
2.02,0.14232473266232293
2.021,0.24453553396989633
2.0220000000000002,0.6034520717395125
2.023,-0.16923478906324624
2.024,-0.6622272043282142
2.025,0.30966336061358085
2.0260000000000002,0.7957308109863738
2.027,0.6189953775808185
2.028,0.29399781139889314
2.029,0.06161678310450633
2.0300000000000002,0.42619905533352376
2.031,-0.13307601158794188
2.032,0.27981563899621426
2.033,0.27219256616932763
2.0340000000000003,0.4301451111167899
2.035,0.9407876574558597
2.036,0.24117702184958117
2.037,-0.009399179104729039
2.0380000000000003,0.16333911142390686
2.039,-0.3262725048215554
2.04,0.032462897724136124
2.041,0.15448063877770393
2.0420000000000003,0.1533636066667547
2.043,0.3838279279383671
2.044,0.11096698689550384
2.045,0.7042225976868394
2.0460000000000003,0.36836494447210644
2.047,0.356549411339999
2.048,0.2440445848387524
2.049,0.3662452563063257
2.05,0.5414221055465301
2.051,0.007911727377990369
2.052,0.047751676895475575
2.053,0.13691029847467012
2.054,-0.18502124802612818
2.055,-0.027065363042103677
2.056,0.08555606709180792
2.057,0.5097079326527992
2.058,0.3529958071884517
2.059,0.36484167803328793
2.06,0.5975429416147406
2.061,0.33651681582408116
2.062,0.5272429651073307
2.063,0.40570301216238935
2.064,0.534868868893357
2.065,0.28965671642723045
2.066,-0.26778293717432666
2.067,0.41358852349368996
2.068,0.8627286564272756
2.069,0.6899875756157015
2.07,0.6748758667652521
2.071,0.7291686678878797
2.072,0.3609629681274919
2.073,0.375288212108101
2.074,0.12038227217561757
2.075,0.20968664037935908
2.076,0.49779531866042165
2.077,0.692029930527361
2.078,0.31468554166435403
2.079,0.25280554112815706
2.08,0.42232235040799004
2.081,0.6367609650135768
2.082,0.054385408486011116
2.083,-0.1759908779072522
2.084,0.36503647411680273
2.085,0.17193961224768417
2.086,0.38380920555279896
2.087,0.4806358281990226
2.088,0.36972471459797174
2.089,0.9163445855618999
2.09,0.5504369556137142
2.091,0.5142935937882513
2.092,0.5855042042942327
2.093,0.03756428891121015
2.094,0.6791664880137945
2.095,0.3421589569834883
2.096,0.5732030047711559
2.097,0.06690805947739803
2.098,-0.05341088708764119
2.099,0.6880143504673881
2.1,0.5884511159768326
2.101,0.23771850550356272
2.102,0.2771404953555255
2.103,0.8995459705549738
2.104,0.22097290318595625
2.105,1.0770934665411045
2.106,0.31073529769249353
2.107,0.7596827135132962
2.108,0.4488270442886467
2.109,0.70178545495432
2.11,0.32790942473008655
2.111,0.4125425960054102
2.112,0.44684019949339604
2.113,0.1127679361970226
2.114,0.6223723648448495
2.115,0.24209328071576341
2.116,0.3331200290284844
2.117,0.11826899667060309
2.118,-0.3294118182962532
2.119,0.4103694219127725
2.12,1.2227979906980095
2.121,0.7656514641099084
2.122,0.5526451476292206
2.123,0.5018765453166684
2.124,0.6018059415750391
2.125,0.7641357345525629
2.126,0.2408223291387727
2.1270000000000002,0.9150403024797988
2.128,0.773037656181915
2.129,0.7457258954528848
2.13,0.6305560858570562
2.1310000000000002,0.4735627480010016
2.132,0.6411466501323795
2.133,0.5941180491755657
2.134,0.29548779034818407
2.1350000000000002,0.22397681878816844
2.136,0.43068194979740676
2.137,0.8781302183800188
2.138,0.06283232417851602
2.1390000000000002,0.02112288810138476
2.14,0.5405718777353075
2.141,0.5360955361864195
2.142,0.599415086324462
2.1430000000000002,0.6413510952033359
2.144,0.5139608416964119
2.145,1.0312506121449405
2.146,0.09752527750319775
2.1470000000000002,0.3133664277964575
2.148,0.5070629916932133
2.149,0.015377328464569174
2.15,0.42277193681796005
2.1510000000000002,0.9410885027782772
2.152,0.4189826892059697
2.153,0.45767550110504546
2.154,-0.005990609952983922
2.1550000000000002,0.17997982053228206
2.156,0.25487403769053213
2.157,0.28389969521856906
2.158,0.7833351995823403
2.1590000000000003,0.5914586041225466
2.16,0.11897613915190558
2.161,0.5545557587502858
2.162,0.6551657618539182
2.1630000000000003,0.8670146354006542
2.164,1.0104134708175039
2.165,0.23362508247357164
2.166,0.28694027560117796
2.1670000000000003,0.13559005035952162
2.168,0.4173358955939733
2.169,0.5963064526687357
2.17,0.7183643177277453
2.1710000000000003,0.36507701349081484
2.172,0.26056516739220414
2.173,0.37639199705134085
2.174,0.0625211032400704
2.1750000000000003,0.9313701136959055
2.176,-0.17662046732949188
2.177,0.3715156735551449
2.178,0.9414475566079503
2.179,0.3603694047140111
2.18,0.32824491088744995
2.181,0.30488932810009306
2.182,0.38178671106857837
2.183,0.8657268145525456
2.184,-0.1996963630902468
2.185,0.9245144240996034
2.186,0.02807301833842675
2.187,0.3566738392718165
2.188,0.28133018403906884
2.189,0.5542943332751092
2.19,-0.13716375260078242
2.191,0.44541650444761155
2.192,0.8815202954739336
2.193,-0.16156102293885935
2.194,0.2853341794383261
2.195,0.020117341535363778
2.196,0.3465061908737468
2.197,0.23377244033240063
2.198,0.05274055090476696
2.199,0.41441247755258026
2.2,0.8351970590822599
2.201,0.26241691363044
2.202,0.5583403824370804
2.203,-0.028642379679760244
2.204,0.08137191195124849
2.205,0.5096352808536121
2.206,0.8029277751709554
2.207,0.44480547096395145
2.208,0.2166727168901791
2.209,0.2770527918386455
2.21,-0.13424548314005733
2.211,0.38580486455178337
2.212,0.43571132377851174
2.213,0.0076628087575927595
2.214,-0.017560412631897337
2.215,0.19265311467815188
2.216,-0.018933781945050854
2.217,0.1007117340315918
2.218,0.7668248449393106
2.219,0.08488013809960823
2.22,0.07656023073598264
2.221,0.014845097103570529
2.222,0.45435757826648465
2.223,0.19294421973355524
2.224,0.06076554503669346
2.225,0.650899706869377
2.226,0.669507343772123
2.227,0.043284260950878894
2.228,-0.3647074924202857
2.229,0.4635765595335197
2.23,-0.08104400414557225
2.231,0.3245354788232029
2.232,-0.5376742900681142
2.233,0.29288105701332107
2.234,-0.3586022401565463
2.235,0.21291989301282144
2.236,-0.0033122017909477525
2.237,-0.285764942659045
2.238,-0.10577662454690195
2.239,0.24388898299183462
2.24,0.09443495271672947
2.241,0.26265378601598843
2.242,0.7018915580094971
2.243,-0.34444518580045147
2.244,0.6179328268840699
2.245,0.16270204102162095
2.246,-0.1494074037775379
2.247,-0.2993472969492337
2.248,0.014607455717797653
2.249,0.31367975295650063
2.25,-0.03826473611325589
2.251,0.41616175969503894
2.2520000000000002,-0.5066962799663882
2.253,-0.10337347512628067
2.254,-0.49594584404333636
2.255,-0.022305694977165613
2.2560000000000002,0.13329716263571123
2.257,-0.25105583581718327
2.258,-0.8902235396429967
2.259,-0.027645447835290205
2.2600000000000002,0.06835494873790632
2.261,0.0832949805836895
2.262,0.3544003882155181
2.263,-0.3217329870546598
2.2640000000000002,0.21165895377701505
2.265,0.3640615964505295
2.266,-0.5383256138296432
2.267,0.07079369225216373
2.2680000000000002,-0.20461080454775238
2.269,-0.11180460100486855
2.27,-0.020041998520930658
2.271,-0.30749102181650045
2.2720000000000002,-0.3979669167363973
2.273,-0.2131656054260775
2.274,-0.5698002240768727
2.275,-0.580256035853028
2.2760000000000002,-0.051765471646167904
2.277,-0.5919496822465797
2.278,-0.031206236543735978
2.279,-0.07033025093793914
2.2800000000000002,-0.7018042949795137
2.281,-0.3622572440240992
2.282,0.22132451272485987
2.283,-0.4149011777612398
2.2840000000000003,-0.25140341755994
2.285,0.025728622193032624
2.286,0.1115649210888289
2.287,-0.21875157442086673
2.2880000000000003,-0.3502644634889942
2.289,0.22226069186437633
2.29,0.280793062088413
2.291,0.016392045022896772
2.2920000000000003,-0.284994683277631
2.293,-0.5806011828205259
2.294,-0.6068262885771323
2.295,-0.21115916590977069
2.2960000000000003,-0.2427833587300434
2.297,0.061140070202343036
2.298,-0.14727797203178017
2.299,-0.7706121416765706
2.3000000000000003,0.02169165917065156
2.301,-0.5674689802855882
2.302,-0.3603780052037614
2.303,-0.15296804523216362
2.3040000000000003,0.379960217919356
2.305,0.7142635719272625
2.306,-0.04640541141435295
2.307,-0.30235016405509474
2.308,-0.11387571394370571
2.309,-0.040468076860869784
2.31,-0.4384738406315022
2.311,0.16083505442980045
2.312,-0.341082282371249
2.313,-0.28734661131472405
2.314,-0.25548288845713224
2.315,-0.33800833052636836
2.316,-0.21218006016771968
2.317,-0.6390482281136606
2.318,-0.6033947417811062
2.319,-0.7421692248347255
2.32,-0.25340625220182594
2.321,-0.12464850029237326
2.322,-0.19703383099349833
2.323,0.1862542301178364
2.324,-0.30735664645463784
2.325,-0.10388600050972017
2.326,-0.6405742365708722
2.327,-0.4469945101190406
2.328,-0.14785809709891728
2.329,-0.13313168736064418
2.33,-0.5103540470502612
2.331,-0.4778787158922584
2.332,-0.9429039773303131
2.333,-0.6199721682758994
2.334,-0.2630825799083441
2.335,-0.36559183518996186
2.336,-0.3860515484326307
2.337,-0.5100378176899785
2.338,-0.5035802897164262
2.339,-0.6787006670627146
2.34,-0.24276500017225058
2.341,-0.297859402588179
2.342,-0.25123640668336655
2.343,-0.5370246770457174
2.344,-1.0134358277490885
2.345,-0.0357424294180175
2.346,-0.5157100564013122
2.347,-0.6472979586023784
2.348,-0.20467306914298575
2.349,-0.5602512450356252
2.35,-0.15754734293359826
2.351,-0.3232321869378025
2.352,-0.33296862277778705
2.353,-0.9717022485907006
2.354,-0.2142132754302331
2.355,-0.5059164211941586
2.356,-0.6917046598607128
2.357,-0.5251485956281018
2.358,-1.0802831568828415
2.359,-0.3982333821854197
2.36,-0.79995507781897
2.361,-0.8671815535801628
2.362,-0.8912722027400504
2.363,-0.07961766043448264
2.364,-0.588904079326646
2.365,0.06406096231771082
2.366,-0.562440442546178
2.367,-0.9287811963310383
2.368,-0.7742456113269343
2.369,-0.09693426469073751
2.37,-0.545782817595142
2.371,-0.6947563666876883
2.372,-0.5104177937936993
2.373,-0.4302089732288827
2.374,-0.25984652896068555
2.375,-0.1654502310321221
2.376,-0.7029967674681497
2.3770000000000002,-0.9785580999037512
2.378,-0.6824628098865189
2.379,-0.4521860257656319
2.38,-0.7881410420773256
2.3810000000000002,-0.7548230251613215
2.382,-0.33615191487737134
2.383,-0.43116951452429003
2.384,-0.39186090500701304
2.3850000000000002,-0.6236059510672595
2.386,-0.4692452754805432
2.387,-0.6906941162119514
2.388,-0.1675049235372468
2.3890000000000002,-0.15080566740998697
2.39,-1.0449999840357764
2.391,-0.7996824836873438
2.392,-0.9963713635403691
2.3930000000000002,-0.7631723161528595
2.394,-0.6059529090239603
2.395,-1.0191851464738748
2.396,-0.8543544149837475
2.3970000000000002,-0.8631027468549833
2.398,-0.4758592209182479
2.399,-0.48753067069993744
2.4,-0.6920495241487502
2.4010000000000002,-0.38960119141804556
2.402,-0.5767207680933643
2.403,-0.46996176248725896
2.404,0.12997680749076956
2.4050000000000002,0.03725007259297909
2.406,-0.7573073228659947
2.407,-0.13029449888169115
2.408,-0.15542309473372878
2.4090000000000003,-0.7686302725307907
2.41,-0.20678023310655289
2.411,-0.019224749696914612
2.412,-0.8424626791782034
2.4130000000000003,-0.8002207701485509
2.414,-0.23095282479394325
2.415,-0.4567047467742379
2.416,-0.3647546463924238
2.4170000000000003,-0.41068664311375996
2.418,-0.370333077047628
2.419,-0.8543405788281643
2.42,-0.10796865076457321
2.4210000000000003,-0.03698532285523286
2.422,-0.42533664758905987
2.423,-0.3439076843208799
2.424,-0.7723962244957953
2.4250000000000003,-0.15023207038212316
2.426,-0.13406060829168118
2.427,-0.33475080498621845
2.428,0.0029403171220864013
2.4290000000000003,-0.4585526206400104
2.43,-0.21587484361982542
2.431,-0.718022256550852
2.432,-0.4429698608595687
2.433,-0.5061785495204348
2.434,-0.39626983369632146
2.435,-0.5753423923607134
2.436,-0.4947019427749685
2.437,-0.18885538660969156
2.438,-0.541132781300136
2.439,-0.8597014825655013
2.44,0.1826016182972801
2.441,0.107671518984124
2.442,-0.6619062170195575
2.443,-0.040478836865421294
2.444,-0.37931476032061173
2.445,-0.1396658302750287
2.446,-0.13047279031178666
2.447,-0.2983504472025691
2.448,-0.48031632329397544
2.449,-0.4752131077861427
2.45,-0.568750200790617
2.451,-0.5692347136177698
2.452,-0.3625664868074291
2.453,-0.574067504414812
2.454,-0.1636872052828639
2.455,0.07826044911127926
2.456,-0.5317089390211767
2.457,-0.26630011616763616
2.458,-0.16068459295623952
2.459,-0.13566468893586103
2.46,-0.21809025667603596
2.461,0.018354458862739287
2.462,-0.02633671927729525
2.463,-0.5145886353057088
2.464,0.13729458762083102
2.465,0.15329760539748527
2.466,-0.34106797012070456
2.467,-0.10917016778505546
2.468,0.06809038965396827
2.469,-0.22178199419721176
2.47,0.13783113798745836
2.471,0.5000541095916832
2.472,-0.4668957966070042
2.473,-0.6616248526451162
2.474,-0.1644318778516573
2.475,-0.03803974564963043
2.476,-0.3128863545714639
2.477,0.212566868323824
2.478,-0.5968362329048772
2.479,0.04655313432704698
2.48,-0.3061031898100898
2.481,0.4284655727878126
2.482,0.5443977507049957
2.483,-0.2550988318585352
2.484,-0.16961647940026348
2.485,0.2641857088010764
2.486,-0.10854507279497864
2.487,-0.014040248539624128
2.488,-0.00871774316840579
2.489,-0.6138953927641173
2.49,-0.0668179406104262
2.491,-0.2942482240934914
2.492,-0.25689622937478895
2.493,0.3082623033277761
2.494,-0.509721122677262
2.495,0.11256629625973606
2.496,-0.20391668981894445
2.497,-0.1836748413212161
2.498,0.1657679958646022
2.499,0.06483066899150021
2.5,0.171183899165862
2.501,0.32764011753903033
2.5020000000000002,-0.028048942004070508
2.503,-0.0839242295798633
2.504,-0.2053173472479402
2.505,-0.11622789922903064
2.5060000000000002,1.0174973819860975
2.507,0.49823117193389904
2.508,-0.2963629272075557
2.509,-0.3094074951488286
2.5100000000000002,0.20722643529769813
2.511,0.20217288511821385
2.512,0.18099941992634075
2.513,-0.07606985490616179
2.5140000000000002,-0.04523040014274908
2.515,0.09205451454067017
2.516,0.030517240515689395
2.517,-0.6406882563007337
2.5180000000000002,-0.015583033927110676
2.519,-0.16807413120372333
2.52,0.1769083692549809
2.521,1.0569001533634643
2.5220000000000002,0.30549899263021074
2.523,0.12935242482076967
2.524,0.5201668930112063
2.525,0.3993148633502361
2.5260000000000002,0.38160580366867247
2.527,0.42936664966368665
2.528,0.8480630562653653
2.529,-0.13015889180365706
2.5300000000000002,0.3261518993857639
2.531,-0.11892649067106568
2.532,0.30356210209202966
2.533,-0.15505443502649055
2.5340000000000003,-0.01312790521440034
2.535,0.02436267151116435
2.536,0.4161972474993646
2.537,0.4188262417902463
2.5380000000000003,-0.20270380785240788
2.539,0.22093049994512648
2.54,0.028002880626104613
2.541,-0.10028610299096252
2.5420000000000003,0.24548501091982358
2.543,0.24557662979150624
2.544,1.0857079125138214
2.545,0.4978013450977067
2.5460000000000003,-0.04498242522962492
2.547,0.189907306430304
2.548,0.6488279884214434
2.549,0.9462208830096052
2.5500000000000003,-0.1819023675251593
2.551,-0.2959265234504559
2.552,0.8064761762295848
2.553,0.3449123603189469
2.5540000000000003,-0.04174779054707675
2.555,0.3791007207110748
2.556,-0.5623019925498569
2.557,0.24840383041813086
2.5580000000000003,0.3725737603408139
2.559,0.5840457464843762
2.56,0.03810476727658049
2.561,0.4034345007649011
2.562,0.13247612231079126
2.563,0.513284664744435
2.564,0.18665626736456215
2.565,0.34205406196263877
2.566,0.16511759187153235
2.567,0.6492131446966777
2.568,0.6934395505943011
2.569,0.34173678395599794
2.57,0.3967280198759054
2.571,-0.07624797304405184
2.572,0.24446269643702212
2.573,0.30103211477389713
2.574,1.0919157681149174
2.575,-0.02908161054477411
2.576,0.7523171453548068
2.577,0.6299222314164591
2.578,0.4407103457156962
2.579,0.9154484658421234
2.58,0.5337956045330725
2.581,0.5731466990352236
2.582,0.47160565742080307
2.583,0.8799340727595014
2.584,0.8591382991075429
2.585,0.35045015377306704
2.586,0.1404771064673611
2.587,0.4640757326255651
2.588,0.26568766798557936
2.589,0.46154695283607855
2.59,0.8236449666382576
2.591,0.2869607893789622
2.592,0.38599504668773643
2.593,0.3966210446879576
2.594,0.6219622164492983
2.595,-0.3091785572512554
2.596,0.19004873116920118
2.597,0.45185033707328204
2.598,0.7727404296452394
2.599,0.2950767188080207
2.6,-0.0874375536649817
2.601,0.6942474056006593
2.602,0.34743070309024726
2.603,0.20501553750343665
2.604,0.3904928541321852
2.605,0.528933973267561
2.606,0.399498118725389
2.607,-0.09350468129894117
2.608,0.8165324460794794
2.609,0.9032917380132308
2.61,0.6866002227662044
2.611,0.12007476669966188
2.612,0.3741169866904307
2.613,0.411467778362625
2.614,0.5797633780873837
2.615,0.5965594972726631
2.616,0.18144786399694213
2.617,0.4411724759772266
2.618,0.5764724007269054
2.619,0.9044244473368449
2.62,0.7103653261615543
2.621,0.7669871839531596
2.622,0.5835712499283497
2.623,1.0038815376402015
2.624,0.7179950125192753
2.625,0.3416736269479288
2.626,1.0160771647689826
2.6270000000000002,0.7901147758408505
2.628,0.42551005521099483
2.629,0.3864222875207287
2.63,0.5879860277563638
2.6310000000000002,0.6066331892730773
2.632,0.498475959031693
2.633,0.5099664110860225
2.634,0.9116872160034043
2.6350000000000002,0.7175202963277045
2.636,0.45731573859831903
2.637,0.6958173471617092
2.638,0.1248072758164268
2.6390000000000002,0.5807585828111619
2.64,1.0339355302842765
2.641,0.4554154570119043
2.642,0.29312240842761694
2.6430000000000002,0.3725384692528694
2.644,0.2540316068841378
2.645,0.34886300812600474
2.646,0.4666440414691463
2.6470000000000002,0.14024542947693658
2.648,0.5427249199228148
2.649,0.7790171239468112
2.65,0.20320140410350293
2.6510000000000002,0.8984326301523996
2.652,0.5659543692754573
2.653,0.6976394050766559
2.654,0.17470845344315167
2.6550000000000002,0.6212458110641107
2.656,0.03985278166912093
2.657,0.6462884744963944
2.658,0.4503938630192716
2.6590000000000003,0.5901266519004471
2.66,0.09973514454556276
2.661,0.2120833725376951
2.662,0.6848677027808905
2.6630000000000003,0.24046552257700993
2.664,0.6752131524767304
2.665,0.12801199808385855
2.666,0.784649792764279
2.6670000000000003,0.1431064136033521
2.668,0.6532318346299214
2.669,0.6440882204286428
2.67,0.2131324172221385
2.6710000000000003,0.562470290708988
2.672,0.43465210336872184
2.673,0.1692120425188956
2.674,0.010497568506214028
2.6750000000000003,-0.2842792103143011
2.676,0.41057285499583024
2.677,-0.15334733152219487
2.678,0.36296895067145457
2.6790000000000003,0.27929498652134954
2.68,0.5889994540193599
2.681,0.32150930509626485
2.682,0.33706987969317576
2.6830000000000003,0.6734334834360813
2.684,0.5643796190338368
2.685,0.5593311008655406
2.686,0.5960404410160285
2.6870000000000003,-0.02400209892000031
2.688,0.6371401141247596
2.689,0.5614689905479713
2.69,0.037268614391401174
2.691,0.2335405625207643
2.692,0.2624352221995874
2.693,0.20704214311846364
2.694,0.3285803191257684
2.695,0.6481220294237017
2.696,0.5432700473176856
2.697,-0.16563765092175176
2.698,0.43180762070986634
2.699,0.6667307879518823
2.7,0.40993518235300236
2.701,0.6469821787044225
2.702,0.9460941335028579
2.703,0.6664523715136851
2.704,0.4430954036891708
2.705,0.6814399397149234
2.706,0.401159316539231
2.707,0.3452923793137369
2.708,0.20516585533300333
2.709,0.746289377861269
2.71,-0.004651762731745324
2.711,0.6641605840486162
2.712,0.32097064220360566
2.713,-0.27650194383306215
2.714,0.23374701959338035
2.715,-0.5171183065129482
2.716,0.2997345439164395
2.717,0.3861209633160376
2.718,-0.04079847850625769
2.719,0.196052157110074
2.72,0.7703095064674251
2.721,0.0573836275155418
2.722,-0.08657228930047237
2.723,0.6918104924377693
2.724,0.8443536136923606
2.725,0.2556171987418277
2.726,0.5470653530405414
2.727,0.6258541053317515
2.728,-0.027490776773607395
2.729,0.015730701972081648
2.73,0.4936072975288483
2.731,0.5928520826869225
2.732,0.22222111329774052
2.733,-0.23884245052708952
2.734,0.6008676721375213
2.735,-0.16560061205072685
2.736,-0.10813545649331074
2.737,0.10311823350683673
2.738,0.48258239554556687
2.739,0.29418623887049444
2.74,0.1871262668907354
2.741,0.2263164509096654
2.742,0.12201378324789205
2.743,0.29226915206841586
2.744,-0.6260989689148069
2.745,0.04241302204371766
2.746,0.19262439119443406
2.747,-0.24555743431338384
2.748,0.18724056829437163
2.749,-0.024156646916667242
2.75,0.5266427094946503
2.751,0.4347211981852907
2.7520000000000002,-0.2110852436863717
2.753,-0.14499810424247453
2.754,-0.14241208040191916
2.755,-0.2668931026125426
2.7560000000000002,-0.0742615591850451
2.757,-0.3523119183791407
2.758,-0.44814398313611015
2.759,0.0994834752958467
2.7600000000000002,0.12619225848439977
2.761,-0.27928817380281457
2.762,0.25227235989764507
2.763,-0.18989020190954936
2.7640000000000002,0.08354369355327387
2.765,0.25241254649087563
2.766,-0.014833108038801071
2.767,0.11132041811880927
2.7680000000000002,-0.2082857484117247
2.769,-0.14628777410280663
2.77,-0.18610277284652688
2.771,-0.3852959565445108
2.7720000000000002,-0.24828674192264893
2.773,-0.6879968203316088
2.774,-0.39097256656066415
2.775,-0.33997114519837346
2.7760000000000002,-0.33243138228173197
2.777,-0.3197607054602231
2.778,-0.2496292467745466
2.779,-0.06527518336830408
2.7800000000000002,0.07829284589742498
2.781,-0.3539174163778799
2.782,-0.4978685648060927
2.783,-0.43316484209226436
2.7840000000000003,-0.25824301522560245
2.785,-0.21846604112749057
2.786,-0.3544510515551893
2.787,-0.5321249078824865
2.7880000000000003,-0.30784765332376046
2.789,-0.1500222806109872
2.79,-0.062367997300194086
2.791,-0.4444922861441301
2.7920000000000003,-0.434489472690163
2.793,-0.6161309589824413
2.794,-0.36712471772259486
2.795,-0.6224419877467408
2.7960000000000003,-0.19636448102428744
2.797,-0.8950994552618173
2.798,-0.4503019015283674
2.799,-0.22935584939111045
2.8000000000000003,-0.23874227124947955
2.801,0.5398593071028888
2.802,-0.14024661624767984
2.803,-0.5292444861602732
2.8040000000000003,-0.2473793031425542
2.805,-0.7515858949142811
2.806,-0.2526022539442347
2.807,-0.49730799553920907
2.8080000000000003,0.00038967418016494504
2.809,-0.4716267870016824
2.81,-0.3773033277029216
2.811,-0.56839570476522
2.8120000000000003,0.1115518954273157
2.813,-0.533042367877512
2.814,0.09450694897029126
2.815,-0.2202387850752262
2.816,-0.3192421921079853
2.817,-0.3432523279543259
2.818,-0.317765026132419
2.819,-0.9904247287468971
2.82,-0.46892163963312916
2.821,-0.10478205999072006
2.822,-0.3490348458812943
2.823,-0.7376504539274944
2.824,-0.3213991759791627
2.825,0.20672315768917343
2.826,0.06100354093133717
2.827,-0.34946580218652484
2.828,-0.07108464125122688
2.829,-0.4978144266939958
2.83,-0.9333254387990241
2.831,-0.7337387367737065
2.832,-0.018675222773612325
2.833,-0.5950613325827095
2.834,-0.6032127227767862
2.835,-0.6281047989043959
2.836,0.034989712024908595
2.837,-0.03718224923564495
2.838,0.15993483272956432
2.839,-0.5283178883406929
2.84,-0.36372617960887954
2.841,-0.8791440507312305
2.842,0.04423826675426923
2.843,-0.7295480896258227
2.844,-0.3024002826589261
2.845,-0.6940790012339787
2.846,-0.5487188676204006
2.847,-0.639643958704354
2.848,-0.5950793209199223
2.849,-0.6043842640045832
2.85,-0.6400088966251
2.851,-0.25833379827672287
2.852,-0.8694982576566882
2.853,-0.49575310712638204
2.854,-0.21240872535448668
2.855,-0.7382504899183342
2.856,-0.7962971853111351
2.857,-0.6373225233848576
2.858,-0.19349502450513048
2.859,-0.46259693634361054
2.86,-0.6505079137466246
2.861,-0.31621747247068777
2.862,-0.7652520918256076
2.863,-0.20901631979858076
2.864,-0.2775428689082818
2.865,-0.48839989199890443
2.866,-0.6532757431646586
2.867,-0.682578085738193
2.868,-0.2788430784385656
2.869,-0.09898359994610337
2.87,-0.6902056883227832
2.871,-0.3927541666750547
2.872,-1.1845313671301585
2.873,-0.7561291132763077
2.874,-0.6043838535926953
2.875,-0.8729050250945499
2.876,-0.8760180861683018
2.8770000000000002,-0.7810776610198039
2.878,-0.47076544305163087
2.879,-0.5864688832624181
2.88,-1.170482734211631
2.8810000000000002,-1.1038877964833258
2.882,-0.6213478326994872
2.883,-0.27926783323708737
2.884,-1.2259514564480583
2.8850000000000002,-0.5459764035027279
2.886,-0.5579994181740364
2.887,0.0030771605310727784
2.888,-0.5500709903885441
2.8890000000000002,-0.3464837724048371
2.89,-0.4487664833381122
2.891,-1.1599991695717837
2.892,-0.3169504220238174
2.8930000000000002,-0.5035461841938984
2.894,-0.4284409261844757
2.895,0.5935797313665817
2.896,-1.20303035289573
2.8970000000000002,-0.04450654030219965
2.898,-0.6242736755580354
2.899,-0.4221353004899179
2.9,-0.4891819317379554
2.9010000000000002,-0.5699183530792854
2.902,-0.5836666211888105
2.903,-0.289612608717539
2.904,-0.827210928600295
2.9050000000000002,-0.13971449268759573
2.906,-0.49229127325329264
2.907,-0.7182350259575458
2.908,-0.5338459184799522
2.9090000000000003,-0.04700652084623705
2.91,-0.6130140523378818
2.911,-0.373068239757798
2.912,-0.7249861200195236
2.9130000000000003,-0.29759336886718774
2.914,-0.33059894320993016
2.915,0.01642930996699188
2.916,-0.5828667126140437
2.9170000000000003,-0.3122669666065363
2.918,-0.4581215914643856
2.919,-0.0676374057759324
2.92,-0.6378136790336238
2.9210000000000003,-0.16436072672037788
2.922,-0.4149286132036619
2.923,-0.3501210525092679
2.924,-0.2855382283945649
2.9250000000000003,-0.22883637825947045
2.926,-0.34054655374251286
2.927,-0.251679544935269
2.928,0.13906972642959772
2.9290000000000003,-0.06269454566145365
2.93,-0.12451024363882703
2.931,-0.5487848127503825
2.932,-0.7026764640657982
2.9330000000000003,-0.1672821046782656
2.934,-0.20104817254966673
2.935,-0.02268311098541133
2.936,-0.6364543518642396
2.9370000000000003,-0.5055341346502368
2.938,-0.9019487588863001
2.939,-0.4954696841621579
2.94,-0.043302399790510385
2.9410000000000003,-0.44671331839146516
2.942,-0.08208346992762261
2.943,-0.30454211023832806
2.944,-0.13120522068873977
2.945,-0.5630194118190455
2.946,-0.19317719412566692
2.947,-1.1253688983778927
2.948,-0.30125547106665446
2.949,-0.7571927652057989
2.95,0.06790572881779744
2.951,-0.08646584531927369
2.952,-0.20241170520279922
2.953,0.09696236046622721
2.954,-0.6529777812441036
2.955,0.1562955618851684
2.956,-0.07803549733204757
2.957,-0.40908805249393815
2.958,0.03009591810775819
2.959,-0.6091534239351294
2.96,-0.48823108550915983
2.961,-0.3870271836170864
2.962,-0.3297047175006947
2.963,-0.46025720143559357
2.964,0.24347268843264389
2.965,-0.19054596589348693
2.966,-0.006330648360062044
2.967,-0.2916569283434404
2.968,-0.6830892983539119
2.969,-0.0779706408059812
2.97,-0.7577387689682813
2.971,-0.2296978526197686
2.972,-0.6415944984663459
2.973,0.3488713280702568
2.974,0.01783136011929383
2.975,-0.22278235980603112
2.976,0.13548556087836644
2.977,-0.47730612391220545
2.978,-0.032210679386872464
2.979,-0.10137932246683043
2.98,-0.04513891918232937
2.981,0.29435825095765833
2.982,0.1663907755885014
2.983,0.06151524332397598
2.984,-0.5012155694961774
2.985,-0.28170454587670335
2.986,-0.02921855793684254
2.987,0.027594829123049266
2.988,-0.35539538673330673
2.989,0.6855095567687047
2.99,0.392251599793912
2.991,0.09330560424350288
2.992,-0.0873483242697364
2.993,-0.18848998868320885
2.994,-0.41834459240015154
2.995,-0.10815110420899669
2.996,-0.042902048676574156
2.997,-0.4722749634169532
2.998,0.028909352222560317
2.999,-0.08376243402658887
3.0,-0.5723422673632231
3.001,-0.22721380379636186
3.0020000000000002,-0.0653031347972429
3.003,0.6472079966395533
3.004,0.2620715889896432
3.005,-0.3006444707299674
3.0060000000000002,0.24091653845480332
3.007,-0.38328949724402017
3.008,0.3835858413953723
3.009,-0.11043569610786413
3.0100000000000002,-0.02809085662175645
3.011,0.36683729482515853
3.012,-0.44492759580452446
3.013,-0.500037154971393
3.0140000000000002,-0.2701854495333204
3.015,0.21151365530579497
3.016,-0.5509094742725688
3.017,-0.9305483788706674
3.0180000000000002,-0.19412618275194157
3.019,0.13462054053578648
3.02,0.3600785249216529
3.021,-0.1080467091881222
3.0220000000000002,-0.0646494569055429
3.023,0.42707191971421915
3.024,-0.465816858279111
3.025,-0.01655623255490278
3.0260000000000002,0.15223281860703022
3.027,0.21566731582300103
3.028,-0.09416348272802193
3.029,0.04123400294925389
3.0300000000000002,-0.7464982060238998
3.031,-0.22837622313765096
3.032,0.07727408853709244
3.033,-0.3755899097138982
3.0340000000000003,-0.07741038515263907
3.035,0.034061750240809416
3.036,-0.19787041188684273
3.037,-0.029762568138526818
3.0380000000000003,-0.3475982948146274
3.039,-0.09288508334630569
3.04,0.18306485087676871
3.041,0.0779935877280257
3.0420000000000003,-0.11718085563992456
3.043,0.1481666207247383
3.044,0.30948858882049984
3.045,-0.5149823835732434
3.0460000000000003,0.44282787111628286
3.047,-0.01997472216682955
3.048,0.18642550520131365
3.049,0.39007577653106107
3.0500000000000003,-0.41150210916915203
3.051,-0.24373400016576918
3.052,-0.14534313399195745
3.053,-0.31602775577482156
3.0540000000000003,0.42537532112152493
3.055,-0.3570316281480378
3.056,-0.2617696854755739
3.057,-0.019584989956599644
3.0580000000000003,-0.4194233830520629
3.059,-0.1496059129643729
3.06,0.09523597837505235
3.061,-0.06895642187725999
3.0620000000000003,0.03076246755926985
3.063,-0.07789793429701213
3.064,-0.3592354411247128
3.065,0.19647796340177157
3.0660000000000003,0.6215855731236831
3.067,0.08642218867252476
3.068,0.12635776040351118
3.069,0.23871852597255258
3.0700000000000003,-0.38079914896401984
3.071,0.4798526980013785
3.072,0.0019201136975871488
3.073,0.4086553702892408
3.074,-0.31501555028671024
3.075,0.4454185767673474
3.076,0.13744099658092035
3.077,0.08501032631821356
3.078,0.01142881107669718
3.079,-0.10546028485981979
3.08,0.3601594975421594
3.081,0.07300966039190543
3.082,-0.5313423858469022
3.083,-0.2542542390746029
3.084,0.03935192597169243
3.085,0.1929996949496665
3.086,0.07812910495954614
3.087,0.44659293637558684
3.088,-0.5265520339823393
3.089,0.07397808038904488
3.09,-0.545393767616143
3.091,0.1970119892077494
3.092,-0.08711613956185255
3.093,0.0449812921697382
3.094,-0.35427053980644263
3.095,0.28383947949732535
3.096,0.21741174758814014
3.097,0.09416159146607107
3.098,-0.09763369928828117
3.099,0.1430554861510526
3.1,-0.2120677703961978
3.101,0.2875683971437137
3.102,0.5536227935264179
3.103,0.40208486743125244
3.104,-0.12377508931270689
3.105,0.20842519518193084
3.106,-0.2928368114980788
3.107,0.2526187927901919
3.108,0.19395954908800228
3.109,-0.5300432024221503
3.11,-0.34853515317370354
3.111,-0.1158433684606292
3.112,-0.14903644937149785
3.113,-0.44374478006313756
3.114,0.021587967176139505
3.115,-0.024557917317846373
3.116,-0.15338639122307168
3.117,-0.30763914948500537
3.118,0.25583361269571836
3.119,0.46572043448899947
3.12,-0.1450684451539564
3.121,-0.15274837570894817
3.122,0.20614082485284796
3.123,-0.026507114486593847
3.124,0.05328649143054504
3.125,0.3218959455174014
3.126,-0.4777011746226716
3.1270000000000002,0.4763923968932912
3.128,0.08058268252804475
3.129,-0.09254624393116394
3.13,-0.026770246266426937
3.1310000000000002,-0.04217289293134139
3.132,-0.5781389162627258
3.133,0.36757976879847604
3.134,-0.08270796194832941
3.1350000000000002,0.03290063913421254
3.136,0.19035927954269977
3.137,-0.3872504367055811
3.138,0.0832630444813161
3.1390000000000002,-0.11119402670712922
3.14,0.25403123256495064
3.141,-0.6072665266679526
3.142,0.029050235156866663
3.1430000000000002,-0.09994449729768773
3.144,0.2247845368197648
3.145,0.2410132562104606
3.146,-0.11718211681709093
3.1470000000000002,-0.13275045981532135
3.148,0.02557891466204526
3.149,-0.23809096875707025
3.15,0.25259510863563656
3.1510000000000002,-0.14166385957173963
3.152,-0.930874991025748
3.153,-0.19334831642403527
3.154,-0.406668797882706
3.1550000000000002,-0.5893827446382837
3.156,-0.46633364309628544
3.157,-0.04807915788760131
3.158,0.33981372324522435
3.1590000000000003,0.06305364272201162
3.16,-0.1819510164647215
3.161,0.16767295798870474
3.162,-0.07894856783645192
3.1630000000000003,-0.1274784113114439
3.164,-0.25120314884037787
3.165,-0.4255486420255158
3.166,-0.021871460338316023
3.1670000000000003,0.12831774641352583
3.168,0.029791424224778935
3.169,-0.09388837894671337
3.17,-0.28372381820903364
3.1710000000000003,0.15157215806798682
3.172,-0.4539181012132294
3.173,0.15190667471554375
3.174,-0.39577075730753103
3.1750000000000003,-0.3257305712059105
3.176,-0.5351412088142175
3.177,-0.2313223435031846
3.178,0.23381521231414693
3.1790000000000003,0.1237867270957025
3.18,0.29352663360842013
3.181,0.18754446321767262
3.182,-0.2723224233298669
3.1830000000000003,-0.018335067860768994
3.184,-0.138954087105722
3.185,0.49917247121171204
3.186,-0.2639309422983787
3.1870000000000003,0.34901100625422077
3.188,0.3266646862618691
3.189,0.5797877599523225
3.19,-0.12290597778884636
3.1910000000000003,0.18279494843654695
3.192,0.6257170257324006
3.193,-0.26619420251760656
3.194,-0.5556177258892243
3.1950000000000003,-0.6640030101723291
3.196,0.11870795702888437
3.197,-0.6458467618550701
3.198,-0.1704742411106253
3.1990000000000003,0.10029225667420173
3.2,0.05555266104898167
3.201,0.15853515869275234
3.202,0.12546548196950752
3.203,0.46456144343150824
3.204,-0.19058926259212294
3.205,-0.1030985415375594
3.206,-0.13669218195173177
3.207,0.32995924299627855
3.208,0.32889810174775924
3.209,0.16626929523303993
3.21,0.35504810006698334
3.211,-0.38431395965040305
3.212,0.44138870823609067
3.213,0.3760698870761811
3.214,0.12558094754420823
3.215,0.434539672631318
3.216,-0.5920926139328443
3.217,-0.2382361403162917
3.218,-0.2793695634338359
3.219,0.18554209768970362
3.22,-0.3150422218806384
3.221,0.2581502442387442
3.222,0.4699393684282636
3.223,0.28946256946269544
3.224,0.1802309587279693
3.225,-0.19636200227022477
3.226,-0.15894963820809335
3.227,0.45578737102649675
3.228,0.29258322640084156
3.229,0.01919584362422632
3.23,-0.12537286372977138
3.231,-0.6386440613708998
3.232,-0.3800342508345803
3.233,0.49252402670442197
3.234,-0.47924232293025515
3.235,-0.0431560536336758
3.236,0.20712754032904668
3.237,-0.4573784998381784
3.238,-0.0033653827949177706
3.239,0.2504729618156951
3.24,0.003749796572178238
3.241,0.891422616137527
3.242,-0.44180125243421065
3.243,0.3985202584026581
3.244,0.043265130410579014
3.245,0.33157604645100247
3.246,0.22749779713929044
3.247,-0.13904515969550094
3.248,0.1274774429670457
3.249,-0.5264687359819946
3.25,0.18097425017141608
3.251,0.05854584035966217
3.2520000000000002,0.13281952536367453
3.253,0.23653379808864455
3.254,0.015180300433398797
3.255,-0.055573174060517136
3.2560000000000002,-0.3594261526279012
3.257,-0.29456792853220726
3.258,0.29724186082395476
3.259,0.3999989222743009
3.2600000000000002,-0.07143313089360387
3.261,0.044702523613487546
3.262,-0.21260578726887455
3.263,0.4327287530177332
3.2640000000000002,0.29473069873705127
3.265,0.6823652309391247
3.266,-0.1683912715244078
3.267,-0.03250067026797253
3.2680000000000002,0.12821230198691708
3.269,0.22484856075522486
3.27,-0.0647002912642896
3.271,-0.2927900265736036
3.2720000000000002,0.2056437334478261
3.273,0.13543890932618197
3.274,-0.36998788179863124
3.275,0.3066328403316487
3.2760000000000002,0.25595396112947044
3.277,-0.04061275026314871
3.278,-0.03489916651642613
3.279,0.13531563189726664
3.2800000000000002,-0.25851092107686724
3.281,0.03991114318672791
3.282,-0.5869365381535006
3.283,0.34383839308837916
3.2840000000000003,-0.37334231510304083
3.285,0.5510259485286997
3.286,-0.00393037656042057
3.287,0.017401604858140823
3.2880000000000003,-0.12954164659610456
3.289,-0.0555099627391272
3.29,0.42555940354441324
3.291,-0.7772442963980153
3.2920000000000003,0.3243110905971945
3.293,0.020505344893021193
3.294,-0.45721214598667775
3.295,-0.4225937179147714
3.2960000000000003,0.4078122565329495
3.297,-0.36455376342030715
3.298,-0.40478367840802665
3.299,0.31029266327193283
3.3000000000000003,0.1015658628857823
3.301,-0.25047597352341844
3.302,0.12376601785063748
3.303,-0.22682410565458588
3.3040000000000003,0.4253520711562978
3.305,0.41841128946194
3.306,0.25470751127609814
3.307,0.1894000178116001
3.3080000000000003,0.587134962689461
3.309,0.03080759765396534
3.31,-0.35456223762623595
3.311,0.10394047441220268
3.3120000000000003,0.5670355896318741
3.313,-0.385329547393259
3.314,-0.2035444816377152
3.315,0.024933811430435812
3.3160000000000003,-0.11127710633123375
3.317,-0.37559277355068343
3.318,0.2777788316399007
3.319,0.6651105171676898
3.3200000000000003,0.05883943770717808
3.321,-0.24031878748330093
3.322,-0.40590963228679244
3.323,0.15829449380385027
3.3240000000000003,0.4262688546243929
3.325,0.24255032394861448
3.326,0.09438449935385972
3.327,-0.09587979609929542
3.3280000000000003,-0.2688705645861947
3.329,0.2813270973349428
3.33,0.27413148641568225
3.331,-0.49462063544470725
3.332,0.41817316822496514
3.333,0.09131966683069832
3.334,0.3247727419142192
3.335,-0.5026383245455345
3.336,-0.5048528982541514
3.337,-0.12559249236767944
3.338,0.09205680283931598
3.339,0.508006547440599
3.34,0.21182367414454317
3.341,-0.041902683606112885
3.342,-0.2491322370705193
3.343,0.44990187125323977
3.344,-0.19430597609569947
3.345,0.5885405664316965
3.346,0.00979025674756373
3.347,0.5580763212228528
3.348,0.26245791224703585
3.349,-0.010196947395257241
3.35,-0.155818911547852
3.351,-0.1331740626413092
3.352,0.06971648248333301
3.353,-0.057754750572185785
3.354,-0.2732490740501297
3.355,-0.14968942309528965
3.356,-0.07153254271376841
3.357,-0.7195219277619354
3.358,0.07867190920736555
3.359,-0.32481806685253406
3.36,-0.34599972096172193
3.361,-0.4753016046957181
3.362,-0.4793892241311205
3.363,-0.3257325514961933
3.364,-0.1176006356596328
3.365,0.6859777412579704
3.366,-0.06265825113904398
3.367,0.13422673131790835
3.368,0.1789229411811527
3.369,0.0702212553022369
3.37,-0.02323303821780995
3.371,-0.3894898285172782
3.372,0.37649973925452707
3.373,0.461257293653866
3.374,-0.5999032598663232
3.375,-0.4072085772659138
3.376,-0.17904875434261583
3.3770000000000002,-0.3702630379105503
3.378,0.09301114080751378
3.379,-0.24938336015947804
3.38,0.6495168203419801
3.3810000000000002,0.3880662777405718
3.382,0.12255073441890928
3.383,0.3889975784334119
3.384,0.42687577893670636
3.3850000000000002,-0.06918424641747298
3.386,-0.1497595217330786
3.387,0.10434461832839445
3.388,0.3172693625786391
3.3890000000000002,0.07261981903350964
3.39,-0.47309894465730884
3.391,-0.27174903262275546
3.392,-0.08097038430756655
3.3930000000000002,-0.10360138073524734
3.394,0.4966570014074256
3.395,-0.5157963827196994
3.396,0.05657112092124769
3.3970000000000002,0.36583223306099266
3.398,0.6226563983975912
3.399,-0.15222092639268456
3.4,0.14742883581605717
3.4010000000000002,0.20182980659710667
3.402,0.11742304469523032
3.403,0.05124813906569914
3.404,0.22589826847952674
3.4050000000000002,-0.6596738255659056
3.406,0.29972649864830087
3.407,0.11875507053607828
3.408,-0.007963943804222023
3.4090000000000003,0.6449603581533536
3.41,-0.20248020563717323
3.411,-0.15182449615701
3.412,0.5386874654321687
3.4130000000000003,-0.330520090892454
3.414,-0.2601402365104778
3.415,-0.144107627029255
3.416,0.15711469300934944
3.4170000000000003,-0.018560947231501417
3.418,-0.446566129374928
3.419,-0.1905522683756551
3.42,-0.18220632996366828
3.4210000000000003,0.007735385870596863
3.422,0.18653162281820845
3.423,0.20636342620388132
3.424,-0.4376978745850083
3.4250000000000003,0.4191822962682568
3.426,0.17087630542849921
3.427,0.49626131371566123
3.428,0.1920380234164425
3.4290000000000003,0.3612985867582171
3.43,0.1399635934350327
3.431,0.37296602742332574
3.432,0.09789666557608391
3.4330000000000003,-0.11027627337036695
3.434,0.586624764504549
3.435,0.16671113668396764
3.436,0.07701767467180792
3.4370000000000003,-0.46379302439898407
3.438,-0.4452708104683123
3.439,0.05691294520505574
3.44,0.04365635933046518
3.4410000000000003,-0.15333507006498637
3.442,0.10107333511287599
3.443,0.5574897778505805
3.444,0.3037263939946012
3.4450000000000003,-0.24230255292582148
3.446,0.06165300348662972
3.447,-0.1605882448182776
3.448,-0.05753144969332566
3.4490000000000003,-0.09318300025140233
3.45,-0.1432936747812048
3.451,-0.4074423110295151
3.452,-0.09707492968470494
3.4530000000000003,-0.24908399049168745
3.454,-0.9739402586301953
3.455,0.5158916073504989
3.456,0.2315252446354849
3.457,-0.19379191691499678
3.458,-0.05313281030705483
3.459,-0.3823980036327708
3.46,0.5087168633432504
3.461,0.6000883078694182
3.462,0.10578664370321361
3.463,0.3879608926931039
3.464,0.14769168530969518
3.465,-0.30101763166277923
3.466,-0.02844135905958367
3.467,0.12048008946907904
3.468,-0.07758579039378882
3.469,-0.03469428379301824
3.47,-0.027419867252735413
3.471,-0.055165248797132985
3.472,-0.0431009780800012
3.473,-0.39908321935647345
3.474,-0.310210496367895
3.475,-0.48537527970999084
3.476,0.19823901327634275
3.477,-0.7125957819895966
3.478,0.2872985777658415
3.479,0.38500311974137025
3.48,-0.09065417609477505
3.481,-0.7500394269107068
3.482,-0.04961464336093266
3.483,0.061646451050853465
3.484,-0.20807381434915667
3.485,-0.05456551814247283
3.486,0.5541642112885196
3.487,0.28037984812801553
3.488,-0.21859070908418382
3.489,-0.448378051441135
3.49,-0.09810519528293024
3.491,-0.09493873324262402
3.492,0.09008123097975046
3.493,-0.24149671320778962
3.494,0.05834422097903788
3.495,0.4805462120180688
3.496,0.14954465510376075
3.497,-0.0953282516367323
3.498,-0.11372366654522624
3.499,-0.13790363969144617
3.5,0.3541922737356526
3.501,-0.15729233434788853
3.5020000000000002,0.07234533792924752
3.503,0.09626107000182357
3.504,-0.05542960621394291
3.505,-0.31173966436523026
3.5060000000000002,0.1919980027148153
3.507,0.0626005078808794
3.508,0.20885066606021885
3.509,-0.12917839249425345
3.5100000000000002,0.36624638964391754
3.511,-0.29393383380104393
3.512,0.45483355997612507
3.513,-0.6051926523859692
3.5140000000000002,0.03532536773754748
3.515,0.04262920475798705
3.516,-0.33377277201177635
3.517,0.046416481920802
3.5180000000000002,0.32507707569880806
3.519,-0.6959473512437062
3.52,0.15082344224725144
3.521,-0.717079546661523
3.5220000000000002,-0.23092091582771138
3.523,0.5696516089077802
3.524,-0.07942895838810018
3.525,-0.2521639893226918
3.5260000000000002,0.03572433293411095
3.527,0.7012736008865613
3.528,-0.49072614893255817
3.529,-0.28449127405430463
3.5300000000000002,0.44922950495387054
3.531,0.5264090036238096
3.532,-0.08980789251632611
3.533,-0.45261751019548213
3.5340000000000003,0.5336473989132284
3.535,0.37833271752475905
3.536,0.10857844469915756
3.537,-0.3246224041187157
3.5380000000000003,-0.07348732748065234
3.539,-0.07900972375093814
3.54,0.09925539138467823
3.541,0.46620213087689905
3.5420000000000003,0.32260363757047017
3.543,-0.24231112365793203
3.544,0.5080545866353767
3.545,0.1939396420039466
3.5460000000000003,0.301225390387184
3.547,0.5208639572210778
3.548,-0.2746955496248139
3.549,0.02015402582556186
3.5500000000000003,-0.1594363654077797
3.551,-0.5012595270471447
3.552,0.04523446805221838
3.553,0.672565266037839
3.5540000000000003,-0.6471289749812443
3.555,-0.10968418331484109
3.556,0.09705722889291904
3.557,-0.04397823894063661
3.5580000000000003,-0.09271694098396518
3.559,-0.4206666084712382
3.56,0.06983602288205183
3.561,-0.19612749366728172
3.5620000000000003,-0.5981979862643184
3.563,0.4392793655916134
3.564,0.3826213975821274
3.565,0.11549829305532393
3.5660000000000003,0.16382805809122059
3.567,0.4031971032521533
3.568,0.1260804222626779
3.569,0.30210696586589714
3.5700000000000003,-0.08924466026216807
3.571,0.362693422134678
3.572,0.03745719255054932
3.573,-0.02268611635573802
3.5740000000000003,-0.47612397824312747
3.575,-0.013913243709487377
3.576,-0.344692126877849
3.577,-0.2723865173960405
3.5780000000000003,-0.3033912137240811
3.579,-0.3507721790072605
3.58,0.637431420905089
3.581,0.430303418034015
3.5820000000000003,0.6348887758725426
3.583,-0.2859668064291762
3.584,0.11648177660278175
3.585,-0.28805228756122875
3.586,-0.1136028115296017
3.587,-0.1945363955874863
3.588,0.4306537271617049
3.589,-0.0879672039930231
3.59,0.3205138001082168
3.591,0.1503345674390515
3.592,0.6323131004021826
3.593,-0.5247349663794162
3.594,0.2826643203065225
3.595,0.24393226112021832
3.596,-0.38711930303762465
3.597,0.2212383015044544
3.598,0.04206496367862207
3.599,-0.09914457742351737
3.6,-0.24718064609160142
3.601,-0.1848311359972637
3.602,0.6737221539650218
3.603,0.0811065451247498
3.604,0.3297446520889511
3.605,-0.13726981450026596
3.606,-0.13885023223697346
3.607,0.4054971422124701
3.608,-0.3460943382362214
3.609,-0.0936624309340962
3.61,0.010208223321683627
3.611,0.0025100811145138645
3.612,-0.11250651073409923
3.613,0.03784423489127922
3.614,0.11275107511582695
3.615,0.12039126363779902
3.616,-0.390846794229863
3.617,-0.1661482288161339
3.618,0.299650333333833
3.619,0.23749245683466458
3.62,-0.41185783544432286
3.621,0.13634566954315053
3.622,-0.5346890495832007
3.623,0.09498217005561463
3.624,0.6644357566533128
3.625,-0.1843678151806959
3.626,-0.1551912620179558
3.6270000000000002,0.31011063390934657
3.628,-0.40406192933365376
3.629,-0.15892480952802437
3.63,0.1789323412745192
3.6310000000000002,-0.22118745374432075
3.632,-0.1295695213925421
3.633,0.14235401365701394
3.634,0.0313581734314525
3.6350000000000002,-0.01995448111137943
3.636,-0.19684233541052726
3.637,0.030116635143190587
3.638,-0.09589832925917705
3.6390000000000002,0.10643998354025788
3.64,-0.14907960753539934
3.641,-0.02386899287637436
3.642,-0.2382088125363636
3.6430000000000002,0.0703994164356317
3.644,-0.14819460745913438
3.645,-0.234213935048598
3.646,0.17270399598613592
3.6470000000000002,0.14472363219478807
3.648,0.29364064571381343
3.649,-0.09843597143504033
3.65,0.12241585405102229
3.6510000000000002,0.1343375722446012
3.652,0.07465361712022955
3.653,-0.3285978042781378
3.654,-0.05029660694815854
3.6550000000000002,0.009242088816398417
3.656,-0.09295211155713373
3.657,-0.7068449969488226
3.658,-0.01063163803720777
3.6590000000000003,0.632857612381693
3.66,-0.10801178062708011
3.661,-0.18752142991911042
3.662,0.17078309314265824
3.6630000000000003,0.17461516257747273
3.664,0.4529262012544427
3.665,-0.27736044677266636
3.666,0.31451972740201084
3.6670000000000003,0.2580283178129303
3.668,0.016134564147079644
3.669,0.1325078948139984
3.67,0.3088372444795049
3.6710000000000003,0.2307929145710394
3.672,-0.4016843188513657
3.673,0.16514575658915143
3.674,-0.11451223313927007
3.6750000000000003,-0.07813777059534537
3.676,-0.07314655432900863
3.677,-0.12597459607697656
3.678,0.29873372390286596
3.6790000000000003,-0.05601708739224524
3.68,-0.33586383851493806
3.681,-0.08715725735341315
3.682,0.11238694027239812
3.6830000000000003,0.44966613472661504
3.684,0.2760340571141678
3.685,-0.15516058362411317
3.686,0.8406626266331813
3.6870000000000003,0.1603342927308864
3.688,0.44139574662894965
3.689,-0.01461263063567527
3.69,0.1600077734116347
3.6910000000000003,0.22093885191802776
3.692,0.3066798882970314
3.693,0.23630879217597486
3.694,0.1665534483923795
3.6950000000000003,-0.19452601935823255
3.696,-0.26662946421632905
3.697,0.01888055365975945
3.698,0.22115989647306553
3.6990000000000003,-0.09771790967046579
3.7,0.31955158971432635
3.701,0.46668672308335724
3.702,-0.2161177504927722
3.7030000000000003,-0.17017451170138528
3.704,0.05299313395791612
3.705,0.1922838004567589
3.706,-0.06226445250060082
3.7070000000000003,0.48656250309763704
3.708,0.1859985836847823
3.709,0.04273581390971736
3.71,-0.4307728571605562
3.7110000000000003,-0.4256464443657654
3.712,0.025524249855298255
3.713,-0.7206803872839422
3.714,0.20868557126370835
3.715,-0.14744615331169608
3.716,0.8778222392489086
3.717,0.6114731757473455
3.718,-0.11321324600349365
3.719,-0.06280280019690185
3.72,0.2986744542006171
3.721,0.5418534824129128
3.722,-0.43263019200155306
3.723,-0.4550109401689086
3.724,-0.09150479003679803
3.725,0.27482127495215924
3.726,0.24416772878179427
3.727,0.4018331359326501
3.728,-0.30113073328034373
3.729,-0.6639414594531654
3.73,0.2574042585906478
3.731,-0.27936058132705993
3.732,-0.6643248845458517
3.733,-0.03738257564968897
3.734,0.14284705483609067
3.735,-0.13661713963638317
3.736,-0.2324601674842587
3.737,-0.12871036908126093
3.738,-0.16995335394947525
3.739,-0.4353158330195379
3.74,-0.21440420309712346
3.741,0.1872856709416437
3.742,0.15528208764220022
3.743,0.1313196412275422
3.744,-0.20343889292649808
3.745,0.045549051359299854
3.746,-0.5580138623033406
3.747,0.13444469860311323
3.748,0.4874358375733022
3.749,-0.4113379401751321
3.75,-0.17577830199532024
3.751,0.06783033417555136
3.7520000000000002,0.31707426509898656
3.753,-0.21536908432754698
3.754,-0.30278075040928776
3.755,-0.6906769427248249
3.7560000000000002,-0.0640742128370807
3.757,0.5317211126056329
3.758,0.024429013360160637
3.759,-0.03758539319260384
3.7600000000000002,0.09662469323009956
3.761,0.027574098252916675
3.762,-0.1851257864487905
3.763,0.32788567414080644
3.7640000000000002,0.16283410856304137
3.765,0.10528397558009718
3.766,-0.19750415655395853
3.767,0.4719540790179253
3.7680000000000002,0.2581893488291668
3.769,-0.13497455177271053
3.77,0.3005474561045897
3.771,-0.18017295095304758
3.7720000000000002,-0.2933795729825679
3.773,-0.30881263468158704
3.774,-0.6264262175559455
3.775,0.04146271412546171
3.7760000000000002,-0.6444491151310183
3.777,-0.4494348488172203
3.778,-0.6814549279528038
3.779,-0.056722607274759806
3.7800000000000002,-0.04509613808155986
3.781,-0.06710716451841398
3.782,-0.25399478317192614
3.783,-0.2707684265934984
3.7840000000000003,0.23441661069349368
3.785,-0.06516557951254634
3.786,0.19001314809036055
3.787,-0.18467290639976788
3.7880000000000003,0.11309734806056024
3.789,0.4218851106323012
3.79,0.17584974011782295
3.791,-0.1546258449024275
3.7920000000000003,0.01838116587752317
3.793,-0.15310125179656353
3.794,-0.09274159622109912
3.795,-0.19768331564455108
3.7960000000000003,-0.14440621339513132
3.797,-0.017273693515240232
3.798,-0.3567861351038308
3.799,-0.3356653475344874
3.8000000000000003,-0.4165627661493637
3.801,-0.44917963191361976
3.802,-0.3064062824368988
3.803,0.1287404514787311
3.8040000000000003,-0.1727306030180445
3.805,0.2540843392693289
3.806,0.10551977625528636
3.807,-0.509649564593916
3.8080000000000003,0.2552712004957442
3.809,0.27414129311499713
3.81,-0.2981588024504659
3.811,0.0951557634309945
3.8120000000000003,-0.315727996452013
3.813,-0.051600586412997765
3.814,-0.4744551737160066
3.815,-0.637931935760373
3.8160000000000003,-0.20995080851340522
3.817,-0.11802038331994491
3.818,-0.17808243331362855
3.819,-0.3861108669042638
3.8200000000000003,-0.11996971863932092
3.821,0.11169012521171134
3.822,0.045310616192482146
3.823,0.13565200861725507
3.8240000000000003,-0.1059289085067498
3.825,0.45151537441484785
3.826,-0.2577463493369227
3.827,0.22716978856351694
3.8280000000000003,0.4133458531172275
3.829,0.1751741272621548
3.83,-0.06075726811945675
3.831,-0.18939081343639466
3.8320000000000003,0.2520477700846252
3.833,-0.507794177015999
3.834,-0.3861429297434093
3.835,-0.21926732964751638
3.8360000000000003,0.27619047562408416
3.837,0.03302859137477347
3.838,-0.3491922527823227
3.839,-0.12399401105296913
3.84,-0.184296943228893
3.841,-0.1820349982325498
3.842,0.35244539279627524
3.843,-0.33062123934156185
3.844,0.5777399083498244
3.845,0.3484689070553868
3.846,0.4223641528106215
3.847,-0.05798015417008821
3.848,0.013796309505526363
3.849,-0.3990438449199253
3.85,-0.15739872212004646
3.851,0.11719475485544639
3.852,0.33004039330516904
3.853,-0.41304874447823137
3.854,-0.20475743272509533
3.855,-0.14538976606975668
3.856,-0.5138424122872615
3.857,0.09650307309002351
3.858,-0.2759756247520336
3.859,-0.08951880479060728
3.86,-0.13558481157357016
3.861,-0.2058998522783936
3.862,0.05666502958509173
3.863,0.01621882586708183
3.864,-0.016451713054087963
3.865,-0.11853848650410283
3.866,0.1909630528643994
3.867,0.5769868799851761
3.868,0.10074469508098073
3.869,0.32973716391082897
3.87,-0.4170665775460422
3.871,0.016426732350634014
3.872,-0.38798902092056803
3.873,-0.523979177697065
3.874,-0.3169170738672258
3.875,0.2575698003240719
3.876,0.18989909697137708
3.8770000000000002,-0.008000282821164578
3.878,-0.5185886931962318
3.879,-0.08978589485388318
3.88,0.09051000267051164
3.8810000000000002,0.08356256831108598
3.882,-0.4943595498149673
3.883,-0.1861936549684609
3.884,0.07588232238490307
3.8850000000000002,0.26088727285515695
3.886,-0.5637326947004705
3.887,0.032264506793534285
3.888,0.10169315619292996
3.8890000000000002,0.28578529599235625
3.89,0.20785727527122974
3.891,0.14386969620514678
3.892,-0.2987606772398266
3.8930000000000002,-0.6533023405744856
3.894,-0.21302147874793453
3.895,0.20048954756256804
3.896,0.32293070662781215
3.8970000000000002,0.13226303125184982
3.898,0.07002372161128437
3.899,0.08299019507828545
3.9,-0.1668356240282453
3.9010000000000002,-0.008116388628581446
3.902,0.559499382977154
3.903,-0.2018657023000635
3.904,0.5795392888424729
3.9050000000000002,0.003391553652382473
3.906,0.49273528435803765
3.907,-0.3411428034117684
3.908,0.23454978557864076
3.9090000000000003,-0.19012934134679219
3.91,-0.42458015757725537
3.911,0.034658513285790976
3.912,0.244063011349546
3.9130000000000003,-0.3343841310155543
3.914,-0.5448104397670339
3.915,-0.12755342930048652
3.916,-0.12133625026267228
3.9170000000000003,0.08359418882886258
3.918,0.22609984618010878
3.919,-0.048726253819232845
3.92,0.5566509944382884
3.9210000000000003,0.09817212279809004
3.922,-0.045149426572816974
3.923,-0.4025685082933503
3.924,0.016307795534666422
3.9250000000000003,-0.000916083623340877
3.926,0.3831970905139559
3.927,0.21964678665755055
3.928,-0.2950322112605374
3.9290000000000003,0.0825780153608077
3.93,0.20145935151871905
3.931,0.42750770837885915
3.932,0.20747266499497496
3.9330000000000003,0.1473522968559392
3.934,-0.07707985324497084
3.935,0.01649360162703488
3.936,0.279745818582329
3.9370000000000003,-0.48073491868138324
3.938,-0.16361032339432618
3.939,-0.26267232406435886
3.94,0.11374593561784449
3.9410000000000003,0.39996835213273674
3.942,-0.120313760787071
3.943,-0.6361896108033346
3.944,-0.02856057187782496
3.9450000000000003,0.37404211960522193
3.946,0.2563946225144793
3.947,0.20935757378066844
3.948,-0.025219465333094424
3.9490000000000003,-0.352807521428459
3.95,0.15458829648732267
3.951,-0.28118624244787604
3.952,0.5964504947848958
3.9530000000000003,0.09025046306885191
3.954,-0.26930014239570454
3.955,-0.2834155742165885
3.956,-0.12298891361358873
3.9570000000000003,-0.15275227604401448
3.958,0.2762716074297451
3.959,0.025023151485725176
3.96,-0.2194895216725533
3.9610000000000003,0.5980339049842333
3.962,0.0735710246853162
3.963,0.3115536022281646
3.964,-0.08736230060391235
3.9650000000000003,0.208934688323357
3.966,0.18843864897247467
3.967,-0.48599308819134895
3.968,0.6633610583674432
3.969,0.41809503771426465
3.97,-0.11915859484381168
3.971,-0.36158262157426485
3.972,0.045489958911826264
3.973,-0.05489238961316927
3.974,0.011595032939450231
3.975,-0.04252678114177311
3.976,0.0567666451622649
3.977,0.35329001038005114
3.978,0.11165243630935093
3.979,-0.3457983491104731
3.98,0.40876885581373856
3.981,0.5230860684839825
3.982,1.004395545582873
3.983,-0.2561465105343851
3.984,0.16797025557459724
3.985,-0.5246296109566961
3.986,0.2610503985432725
3.987,-0.08355839001253365
3.988,0.6358122636767389
3.989,-0.20148279156807197
3.99,-0.5067549113901917
3.991,-0.17228082164826203
3.992,-0.6514248565943972
3.993,0.14442813691470602
3.994,-0.714630565506414
3.995,-0.09146272564505233
3.996,-0.7184491975863726
3.997,-0.17699104079848466
3.998,0.4342349215121155
3.999,0.07729266799324568
4.0,-0.2590480814894794
4.001,0.027823672697469236
4.002,0.07674863456424688
4.003,0.24153589452548338
4.0040000000000004,-0.289829698264841
4.005,0.3091654419188529
4.006,-0.6785484350873554
4.007,-0.0641380679962758
4.008,-0.03752277008060177
4.009,0.277327939695598
4.01,0.06945587258522319
4.011,-0.38367547025207277
4.0120000000000005,-0.2791636684139788
4.013,0.06002088602416231
4.014,-0.03131432470124548
4.015,-0.18004657559786486
4.016,-0.13950079822590467
4.017,0.23395225467132014
4.018,-0.10195091661532107
4.019,0.06092042586564424
4.0200000000000005,0.7753259200066134
4.021,-0.2657823384827382
4.022,-0.3602983264844713
4.023,0.4584882301120591
4.024,0.040033524029800205
4.025,0.15903723886468757
4.026,0.021230543093788176
4.027,0.1693714294687261
4.0280000000000005,0.7106614204454011
4.029,0.4497461763795663
4.03,0.44272932990842456
4.031,-0.26588026841437573
4.032,-0.20843781277651138
4.033,-0.7311720794262941
4.034,-0.13073210745770397
4.035,0.3999006016982335
4.0360000000000005,0.2785361864204723
4.037,0.07683592972188322
4.038,0.16432131996608157
4.039,-0.0022153961274540973
4.04,0.3023045017713872
4.041,0.5070288540558426
4.042,-0.17417591017602174
4.043,0.42801577267946145
4.0440000000000005,0.6374234278965704
4.045,0.24338331080048664
4.046,0.5785130086328232
4.047,1.2037358410233605
4.048,0.3111101618965488
4.049,0.4376801661502189
4.05,0.0724755010478328
4.051,0.3224261408718748
4.0520000000000005,0.3832681111127274
4.053,0.2864808091887117
4.054,-0.08716856689682337
4.055,0.28062052627197914
4.056,0.6670811107704965
4.057,0.381981907793355
4.058,0.5628235652094264
4.059,0.23566111361922548
4.0600000000000005,0.5672436247914749
4.061,0.46150870380884845
4.062,0.12483029122251388
4.063,0.5322258394817913
4.064,0.15775116504137865
4.065,0.2746202312452696
4.066,0.5206607024963174
4.067,0.543045554163619
4.0680000000000005,0.07913447607415533
4.069,0.7283186862980763
4.07,0.5568585048780319
4.071,0.14691092066274625
4.072,-0.12690974809569255
4.073,0.27262212616198117
4.074,0.17189472664757413
4.075,0.33845063430338157
4.0760000000000005,0.2041289753824136
4.077,-0.27137245884678785
4.078,0.24001534287832585
4.079,0.29617658726307405
4.08,0.6122622701832171
4.081,0.24693903795154024
4.082,0.9911442553378345
4.083,-0.06062875716160891
4.0840000000000005,0.9235477783050694
4.085,0.4708576487584992
4.086,0.794126726550057
4.087,0.5489103690618952
4.088,0.8475658981125159
4.089,0.3643957358548347
4.09,0.12282739867966329
4.091,0.8503025720863203
4.0920000000000005,0.3647978673165515
4.093,0.4456817663327035
4.094,0.7378585260011463
4.095,0.055301670315794235
4.096,0.5507060888905665
4.097,0.21149680245058475
4.098,0.37306593602386723
4.099,0.46433114267517717
4.1,0.025461699713484606
4.101,0.2746828589646964
4.102,0.943361287461886
4.103,0.8277728918059678
4.104,0.5590045978479846
4.105,0.6572286181181837
4.106,0.49264876639591265
4.107,0.9751401515791756
4.108,0.4873068136751102
4.109,0.590381853270071
4.11,0.8349526686069639
4.111,0.2281690223733366
4.112,0.9022012022237563
4.113,-0.04571424999156205
4.114,0.8890177005526508
4.115,0.2842546754716465
4.116,0.32889037928290155
4.117,-0.1504292423017326
4.118,0.30284986412904186
4.119,0.15573579138473645
4.12,0.3167194606021045
4.121,0.4890768880038487
4.122,0.8457607458914201
4.123,0.6430247994993367
4.124,0.6873691697517523
4.125,0.2713441833463313
4.126,0.3308399468506035
4.127,1.1203612995845371
4.128,0.3378629511205676
4.1290000000000004,1.0271326533576712
4.13,0.4260950045498778
4.131,0.4683641315358663
4.132,0.7603978274113216
4.133,0.7981415356347554
4.134,0.3684562355467576
4.135,0.2795844346007777
4.136,0.3833489266621505
4.1370000000000005,0.5148114314011045
4.138,0.7019555529356041
4.139,0.46264942552536237
4.14,0.6768095147712766
4.141,1.0123371453109071
4.142,0.6618054706927843
4.143,0.6616609926322204
4.144,0.12524827055983329
4.1450000000000005,-0.20492746048440402
4.146,0.694309189815203
4.147,0.5334682658462757
4.148,0.3836046172635146
4.149,0.5813930330667231
4.15,0.45740713938848543
4.151,0.780981528250053
4.152,0.43855000319486515
4.1530000000000005,0.16438824386838208
4.154,0.6691086912865805
4.155,0.2997489204602654
4.156,0.5253939568894028
4.157,0.23599101238760684
4.158,0.20389399543198716
4.159,0.4494017549606985
4.16,0.4562621192961213
4.1610000000000005,0.6245524358307333
4.162,0.4251055113119596
4.163,-0.025938011286850304
4.164,0.4064190997704763
4.165,0.7762988801650772
4.166,0.4409847051913388
4.167,0.4389483872795506
4.168,0.7834548050978571
4.1690000000000005,0.24280697215714664
4.17,-0.040677002721856245
4.171,0.33967298472591345
4.172,0.21126723899404734
4.173,0.04099070345073591
4.174,0.2604504369594647
4.175,0.45196019136151
4.176,0.30289127233558033
4.1770000000000005,0.4081878216922984
4.178,0.8783880003936964
4.179,0.2554657928787528
4.18,0.4687612117812794
4.181,0.25935894616348154
4.182,0.18199629963120714
4.183,0.27839997612425615
4.184,0.3202346388520944
4.1850000000000005,0.5723270529748427
4.186,1.159982900083699
4.187,0.22185650715937436
4.188,0.2851159184440404
4.189,0.3587914484105297
4.19,0.46101320757725195
4.191,0.3858299482094628
4.192,0.659456146672305
4.1930000000000005,-0.48052644272158657
4.194,-0.4876566319034963
4.195,0.06994854327129939
4.196,0.5479300852789449
4.197,-0.24166630237400322
4.198,-0.657103078290068
4.199,0.43940461395703084
4.2,0.3669897932570536
4.2010000000000005,-0.00737447089117985
4.202,0.0467511195763476
4.203,0.06841639179119763
4.204,0.4014634202388332
4.205,0.18001881463459565
4.206,0.5059121423028136
4.207,-0.5182665325430653
4.208,0.05353456650877647
4.2090000000000005,-0.060550818061689604
4.21,0.16397463353912167
4.211,0.04303593909811794
4.212,0.410364539050239
4.213,-0.4145111228905017
4.214,0.1370996745951739
4.215,0.28039057274605106
4.216,0.6690763698357147
4.2170000000000005,-0.02397827290869324
4.218,0.23424588949511183
4.219,-0.38217098944530464
4.22,-0.5335245849515667
4.221,0.4625399515286307
4.222,0.22943189872209996
4.223,0.6008652786385154
4.224,-0.1564434101577994
4.225,0.410479139046103
4.226,0.8042717945811917
4.227,0.34932301317965203
4.228,0.27822894466523407
4.229,0.16388927682973908
4.23,-0.3469194935553577
4.231,0.4940196797874876
4.232,-0.12990043669608323
4.233,0.17644683243845052
4.234,-0.46416095334368934
4.235,-0.36014724205947124
4.236,0.422932097624795
4.237,-0.10377380352740374
4.238,0.45231691214391134
4.239,0.01452424818726994
4.24,-0.48990271510520855
4.241,0.35495017179375116
4.242,-0.06800831267183181
4.243,0.33443394176798924
4.244,0.1403323146555081
4.245,-0.33154020861820355
4.246,0.16951624033056456
4.247,0.7586137334183098
4.248,0.21923951050524385
4.249,0.019929393477547432
4.25,0.32260302058706064
4.251,0.026015820181755484
4.252,-0.008483303872060165
4.253,-0.42723434242019476
4.2540000000000004,-0.050073402982531316
4.255,0.179237765160428
4.256,-0.3835877000234909
4.257,0.3025214486612195
4.258,-0.1364711898983918
4.259,-0.35366074533578007
4.26,0.23662300629391986
4.261,-0.12403171662631052
4.2620000000000005,0.21152019691471075
4.263,-0.08794447283751226
4.264,-0.010353720917088513
4.265,0.15437740400742667
4.266,0.08251977864931222
4.267,-0.6237613896590609
4.268,-0.3897299772737464
4.269,0.19147519636286997
4.2700000000000005,-0.16398592025290082
4.271,-0.31844184341387366
4.272,-0.6028266975651542
4.273,-0.547332227055234
4.274,-0.8501660344066158
4.275,-0.2848927127979351
4.276,-0.4351087307074325
4.277,-0.5372878389945852
4.2780000000000005,-0.25153701436687714
4.279,-0.09991644953830388
4.28,0.44389710332066085
4.281,-0.6125528741923735
4.282,0.2109060048007963
4.283,0.17137894988519037
4.284,-0.3458099606801387
4.285,-0.05191885940672815
4.2860000000000005,-0.26074220649723906
4.287,-0.08758333448190125
4.288,0.2817278989398635
4.289,-0.022768396855757225
4.29,-0.08829432508082803
4.291,-0.40635816619803755
4.292,-0.7558071255244279
4.293,-0.40066192949036866
4.2940000000000005,0.004289479849003658
4.295,-0.8260637544663902
4.296,-0.6848296354496529
4.297,-0.3214591868113684
4.298,-0.6378094352468091
4.299,-0.5574450852831802
4.3,-0.4209722006646976
4.301,-0.6777360133482963
4.3020000000000005,-0.537423177482958
4.303,-0.016999732071472012
4.304,-0.610950963685122
4.305,-0.6980736352227938
4.306,-0.41742982301537707
4.307,-0.027804527686032615
4.308,-0.3333039508869481
4.309,-0.44613902805770483
4.3100000000000005,-0.32896591370968803
4.311,-0.9014405822017918
4.312,-0.26169181399616237
4.313,-0.3216390286210411
4.314,-0.5780527063021845
4.315,-0.16270696017178093
4.316,-0.8021110399945133
4.317,-0.11549957417350565
4.3180000000000005,-0.3895561159187141
4.319,-0.5130887319066791
4.32,-0.3912187119983775
4.321,-0.3905088810893098
4.322,0.03171917808625979
4.323,-0.6390972381277226
